Data from Black_it10sec_QEPB07591_00001.txt Node
Date: Thu Aug 22 15:42:37 EDT 2019
User: wcc
Spectrometer: QEPB0759
Trigger mode: 0
Integration Time (sec): 3.000000E1
Scans to average: 1
Electric dark correction enabled: true
Nonlinearity correction enabled: false
Boxcar width: 0
XAxis mode: Wavelengths
Number of Pixels in Spectrum: 1044
>>>>>Begin Spectral Data<<<<<
197.938	11044.62
198.749	10831.62
199.559	9989.62
200.369	9816.62
201.179	10302.62
201.988	10300.62
202.798	12361.62
203.608	10002.62
204.417	10249.62
205.227	9617.62
206.036	11030.62
206.846	10998.62
207.655	11632.62
208.464	10990.62
209.273	11480.62
210.082	9901.62
210.891	9981.62
211.7	10126.62
212.508	10079.62
213.317	9571.62
214.125	9146.62
214.934	9828.62
215.742	9976.62
216.55	9814.62
217.359	9305.62
218.167	9763.62
218.975	11457.62
219.782	9494.62
220.59	9369.62
221.398	9261.62
222.206	12538.62
223.013	10531.62
223.82	9308.62
224.628	9685.62
225.435	10095.62
226.242	11059.62
227.049	10881.62
227.856	9788.62
228.663	10781.62
229.47	10265.62
230.277	10335.62
231.083	10034.62
231.89	9829.62
232.696	10802.62
233.502	10010.62
234.309	9748.62
235.115	10941.62
235.921	10560.62
236.727	9138.62
237.533	11405.62
238.339	11125.62
239.144	10739.62
239.95	12615.62
240.756	10820.62
241.561	10516.62
242.366	9814.62
243.172	10830.62
243.977	11697.62
244.782	10806.62
245.587	10948.62
246.392	11219.62
247.197	9115.62
248.001	9313.62
248.806	9727.62
249.611	9895.62
250.415	10670.62
251.219	10301.62
252.024	10513.62
252.828	9728.62
253.632	9808.62
254.436	9583.62
255.24	11287.62
256.044	11422.62
256.848	9825.62
257.651	9435.62
258.455	10291.62
259.258	10556.62
260.062	52931.62
260.865	52931.62
261.668	11335.62
262.471	9674.62
263.274	11030.62
264.077	9536.62
264.88	10406.62
265.683	9294.62
266.486	10302.62
267.288	11473.62
268.091	9121.62
268.893	10387.62
269.696	10745.62
270.498	10474.62
271.3	10424.62
272.102	11795.62
272.904	10232.62
273.706	10378.62
274.508	10170.62
275.309	10807.62
276.111	10639.62
276.913	9227.62
277.714	8857.62
278.515	9958.62
279.317	11462.62
280.118	9190.62
280.919	10483.62
281.72	10076.62
282.521	10963.62
283.322	9690.62
284.122	10697.62
284.923	11037.62
285.724	9949.62
286.524	10123.62
287.325	12233.62
288.125	9257.62
288.925	9969.62
289.725	10396.62
290.525	11967.62
291.325	10375.62
292.125	10729.62
292.925	11219.62
293.724	9173.62
294.524	8975.62
295.324	9414.62
296.123	10457.62
296.922	10255.62
297.722	15029.62
298.521	10617.62
299.32	12231.62
300.119	9065.62
300.918	10748.62
301.716	12500.62
302.515	10228.62
303.314	11990.62
304.112	10116.62
304.911	12153.62
305.709	10041.62
306.507	11264.62
307.306	10325.62
308.104	10099.62
308.902	10458.62
309.7	10371.62
310.498	11495.62
311.295	8979.62
312.093	11359.62
312.891	12002.62
313.688	11096.62
314.485	10425.62
315.283	12659.62
316.08	10825.62
316.877	10135.62
317.674	10220.62
318.471	8589.62
319.268	9904.62
320.065	10734.62
320.862	11011.62
321.658	10345.62
322.455	11308.62
323.251	9511.62
324.047	9649.62
324.844	12359.62
325.64	9342.62
326.436	10464.62
327.232	10077.62
328.028	10266.62
328.824	9453.62
329.62	11318.62
330.415	12756.62
331.211	10790.62
332.006	10822.62
332.802	11560.62
333.597	10251.62
334.392	11481.62
335.187	11016.62
335.982	9720.62
336.777	11063.62
337.572	10171.62
338.367	10733.62
339.162	11519.62
339.956	10128.62
340.751	10708.62
341.545	11286.62
342.34	11305.62
343.134	9470.62
343.928	11570.62
344.722	11689.62
345.516	9698.62
346.31	9758.62
347.104	10605.62
347.898	10519.62
348.691	10357.62
349.485	8847.62
350.278	11229.62
351.072	12346.62
351.865	52931.62
352.658	45063.62
353.452	11925.62
354.245	10009.62
355.038	11237.62
355.83	10233.62
356.623	10020.62
357.416	9988.62
358.209	10223.62
359.001	9801.62
359.794	10768.62
360.586	10975.62
361.378	11541.62
362.17	10153.62
362.963	9484.62
363.755	12042.62
364.546	9052.62
365.338	10904.62
366.13	11134.62
366.922	10599.62
367.713	10215.62
368.505	10272.62
369.296	10039.62
370.088	8558.62
370.879	9562.62
371.67	10211.62
372.461	9495.62
373.252	10378.62
374.043	11852.62
374.834	8477.62
375.625	11090.62
376.415	11579.62
377.206	10868.62
377.996	10002.62
378.787	12252.62
379.577	8960.62
380.367	8605.62
381.157	10726.62
381.947	9981.62
382.737	10687.62
383.527	10822.62
384.317	12094.62
385.107	10184.62
385.896	11695.62
386.686	10608.62
387.475	11050.62
388.265	10072.62
389.054	14614.62
389.843	10153.62
390.632	10410.62
391.421	10756.62
392.21	11581.62
392.999	9628.62
393.788	10537.62
394.576	11061.62
395.365	10689.62
396.154	10260.62
396.942	9778.62
397.73	10544.62
398.519	10590.62
399.307	10836.62
400.095	10706.62
400.883	12230.62
401.671	10494.62
402.459	10822.62
403.246	9656.62
404.034	10214.62
404.822	9951.62
405.609	11598.62
406.396	11911.62
407.184	9118.62
407.971	11098.62
408.758	11044.62
409.545	8112.62
410.332	11248.62
411.119	11278.62
411.906	9149.62
412.693	10871.62
413.479	11045.62
414.266	9949.62
415.052	10969.62
415.839	10453.62
416.625	9909.62
417.411	11232.62
418.197	11649.62
418.983	12167.62
419.769	11295.62
420.555	10165.62
421.341	10426.62
422.127	10657.62
422.912	10232.62
423.698	11603.62
424.483	9976.62
425.269	9687.62
426.054	8963.62
426.839	10920.62
427.624	9843.62
428.409	10195.62
429.194	10319.62
429.979	11004.62
430.764	10921.62
431.549	10516.62
432.333	10294.62
433.118	8717.62
433.902	10899.62
434.687	9878.62
435.471	10696.62
436.255	10678.62
437.039	9989.62
437.823	10333.62
438.607	10115.62
439.391	10522.62
440.175	10632.62
440.958	9954.62
441.742	10206.62
442.526	9197.62
443.309	10628.62
444.092	11613.62
444.876	10584.62
445.659	10277.62
446.442	11891.62
447.225	11493.62
448.008	11842.62
448.791	11362.62
449.573	12979.62
450.356	11695.62
451.139	11371.62
451.921	9810.62
452.704	11006.62
453.486	10260.62
454.268	11287.62
455.05	10791.62
455.833	10080.62
456.615	10901.62
457.396	10448.62
458.178	11201.62
458.96	9163.62
459.742	10434.62
460.523	9976.62
461.305	9998.62
462.086	10837.62
462.868	12467.62
463.649	10664.62
464.43	9752.62
465.211	12290.62
465.992	9708.62
466.773	12608.62
467.554	10478.62
468.335	10774.62
469.115	10724.62
469.896	9407.62
470.676	8408.62
471.457	10723.62
472.237	10709.62
473.018	10444.62
473.798	10340.62
474.578	10940.62
475.358	10175.62
476.138	9171.62
476.918	9265.62
477.697	9980.62
478.477	11892.62
479.257	10648.62
480.036	9724.62
480.816	9065.62
481.595	10785.62
482.374	10173.62
483.153	11406.62
483.932	10506.62
484.711	10331.62
485.49	10584.62
486.269	9709.62
487.048	8922.62
487.827	11028.62
488.605	9885.62
489.384	9638.62
490.162	10764.62
490.941	11694.62
491.719	9829.62
492.497	10181.62
493.275	9866.62
494.053	10785.62
494.831	9636.62
495.609	10585.62
496.387	10891.62
497.164	10805.62
497.942	10450.62
498.72	10040.62
499.497	10361.62
500.274	8828.62
501.052	10377.62
501.829	11128.62
502.606	9724.62
503.383	10365.62
504.16	10865.62
504.937	10680.62
505.714	9343.62
506.49	11576.62
507.267	9010.62
508.043	10717.62
508.82	11747.62
509.596	9192.62
510.373	9830.62
511.149	9162.62
511.925	9924.62
512.701	10487.62
513.477	11607.62
514.253	10379.62
515.029	10108.62
515.804	10263.62
516.58	11830.62
517.356	10193.62
518.131	12152.62
518.906	9420.62
519.682	10502.62
520.457	10254.62
521.232	10788.62
522.007	10794.62
522.782	9492.62
523.557	9301.62
524.332	9184.62
525.107	11747.62
525.881	9629.62
526.656	8797.62
527.43	9501.62
528.205	9971.62
528.979	9228.62
529.753	9865.62
530.527	11205.62
531.302	9663.62
532.076	10462.62
532.849	10029.62
533.623	10115.62
534.397	9389.62
535.171	10370.62
535.944	11262.62
536.718	9162.62
537.491	12337.62
538.265	8711.62
539.038	10649.62
539.811	10702.62
540.584	10085.62
541.357	9915.62
542.13	12136.62
542.903	12064.62
543.676	10376.62
544.449	10518.62
545.221	10859.62
545.994	9963.62
546.766	10487.62
547.539	9688.62
548.311	10976.62
549.083	10505.62
549.855	7901.62
550.627	11347.62
551.399	10400.62
552.171	11980.62
552.943	11035.62
553.715	9499.62
554.486	10153.62
555.258	9464.62
556.029	9334.62
556.801	10861.62
557.572	9203.62
558.343	9764.62
559.114	11292.62
559.886	10933.62
560.657	10162.62
561.427	8599.62
562.198	9604.62
562.969	10721.62
563.74	10046.62
564.51	9739.62
565.281	11909.62
566.051	9740.62
566.822	9882.62
567.592	10110.62
568.362	9693.62
569.132	9927.62
569.902	13087.62
570.672	9191.62
571.442	10846.62
572.212	10923.62
572.982	10106.62
573.751	10797.62
574.521	10330.62
575.29	12359.62
576.06	10958.62
576.829	10301.62
577.598	9874.62
578.367	9161.62
579.136	9608.62
579.905	10491.62
580.674	11507.62
581.443	11071.62
582.212	9940.62
582.981	11298.62
583.749	9819.62
584.518	10279.62
585.286	11784.62
586.054	12701.62
586.823	10884.62
587.591	9619.62
588.359	11364.62
589.127	10944.62
589.895	11930.62
590.663	11888.62
591.431	10966.62
592.198	11251.62
592.966	11309.62
593.734	11955.62
594.501	10214.62
595.268	10550.62
596.036	12241.62
596.803	9777.62
597.57	9985.62
598.337	9865.62
599.104	9762.62
599.871	11060.62
600.638	11134.62
601.405	11646.62
602.171	9695.62
602.938	13606.62
603.704	9259.62
604.471	9682.62
605.237	11798.62
606.004	10259.62
606.77	11302.62
607.536	12010.62
608.302	11656.62
609.068	11514.62
609.834	10478.62
610.599	11402.62
611.365	9651.62
612.131	10567.62
612.896	11441.62
613.662	12105.62
614.427	11279.62
615.193	10433.62
615.958	10620.62
616.723	11045.62
617.488	8722.62
618.253	10717.62
619.018	10515.62
619.783	9698.62
620.548	11648.62
621.312	10319.62
622.077	9613.62
622.842	10851.62
623.606	13092.62
624.37	10505.62
625.135	11338.62
625.899	11137.62
626.663	10211.62
627.427	11205.62
628.191	10767.62
628.955	12135.62
629.719	10370.62
630.483	10620.62
631.246	9019.62
632.01	10161.62
632.773	11934.62
633.537	9615.62
634.3	10420.62
635.063	9940.62
635.827	8968.62
636.59	9895.62
637.353	11278.62
638.116	11288.62
638.879	9106.62
639.641	12275.62
640.404	11087.62
641.167	10376.62
641.929	11361.62
642.692	9412.62
643.454	9778.62
644.216	11149.62
644.979	11198.62
645.741	10948.62
646.503	11824.62
647.265	11533.62
648.027	12313.62
648.789	9583.62
649.551	10576.62
650.312	10529.62
651.074	10179.62
651.835	9935.62
652.597	10667.62
653.358	11196.62
654.12	10616.62
654.881	10295.62
655.642	10756.62
656.403	9972.62
657.164	11160.62
657.925	10611.62
658.686	11673.62
659.447	9641.62
660.207	9678.62
660.968	11031.62
661.728	11905.62
662.489	10759.62
663.249	10790.62
664.01	10077.62
664.77	11492.62
665.53	11404.62
666.29	9628.62
667.05	11263.62
667.81	10072.62
668.57	9950.62
669.329	10073.62
670.089	10101.62
670.849	10577.62
671.608	11184.62
672.368	9300.62
673.127	11366.62
673.886	10003.62
674.646	9135.62
675.405	10629.62
676.164	11131.62
676.923	11019.62
677.682	12484.62
678.44	10740.62
679.199	9488.62
679.958	14110.62
680.717	10716.62
681.475	9704.62
682.233	10032.62
682.992	8963.62
683.75	10259.62
684.508	11124.62
685.266	9466.62
686.024	11280.62
686.782	10134.62
687.54	11339.62
688.298	11018.62
689.056	11828.62
689.814	9249.62
690.571	10910.62
691.329	10432.62
692.086	10283.62
692.843	9824.62
693.601	10961.62
694.358	11424.62
695.115	9462.62
695.872	9760.62
696.629	9131.62
697.386	11500.62
698.143	11740.62
698.9	9470.62
699.656	9924.62
700.413	10190.62
701.169	11225.62
701.926	10172.62
702.682	10570.62
703.438	9891.62
704.195	12161.62
704.951	9137.62
705.707	9160.62
706.463	9172.62
707.219	9859.62
707.974	9413.62
708.73	8544.62
709.486	9801.62
710.241	10085.62
710.997	10030.62
711.752	10648.62
712.508	10366.62
713.263	10192.62
714.018	10381.62
714.773	10351.62
715.528	12285.62
716.283	11453.62
717.038	9542.62
717.793	10662.62
718.548	10171.62
719.303	10668.62
720.057	9824.62
720.812	9970.62
721.566	9115.62
722.321	10521.62
723.075	10159.62
723.829	10965.62
724.583	9855.62
725.337	10256.62
726.091	11758.62
726.845	10593.62
727.599	9038.62
728.353	10539.62
729.106	9397.62
729.86	11905.62
730.614	8969.62
731.367	52931.62
732.12	29020.62
732.874	9527.62
733.627	10430.62
734.38	11097.62
735.133	10521.62
735.886	9904.62
736.639	9933.62
737.392	10653.62
738.145	9546.62
738.897	11784.62
739.65	10494.62
740.403	10873.62
741.155	10935.62
741.907	10995.62
742.66	12089.62
743.412	8901.62
744.164	11176.62
744.916	9272.62
745.668	10496.62
746.42	11970.62
747.172	10633.62
747.924	10420.62
748.676	9180.62
749.427	10090.62
750.179	10982.62
750.93	11439.62
751.682	9139.62
752.433	11190.62
753.184	12083.62
753.935	9885.62
754.687	9359.62
755.438	10998.62
756.189	10383.62
756.939	9590.62
757.69	9471.62
758.441	11184.62
759.192	10305.62
759.942	11309.62
760.693	11381.62
761.443	11058.62
762.194	9594.62
762.944	9401.62
763.694	11192.62
764.444	9947.62
765.194	10877.62
765.944	10940.62
766.694	11151.62
767.444	11901.62
768.194	11399.62
768.943	9423.62
769.693	11473.62
770.443	10799.62
771.192	11329.62
771.941	8626.62
772.691	11058.62
773.44	10416.62
774.189	11442.62
774.938	10687.62
775.687	10123.62
776.436	10673.62
777.185	11105.62
777.934	9665.62
778.683	10484.62
779.431	10283.62
780.18	11402.62
780.928	10358.62
781.677	10418.62
782.425	10921.62
783.173	11419.62
783.922	11003.62
784.67	12534.62
785.418	11613.62
786.166	12234.62
786.914	9584.62
787.661	10752.62
788.409	10344.62
789.157	10443.62
789.904	10435.62
790.652	11604.62
791.399	11131.62
792.147	10802.62
792.894	11505.62
793.641	10527.62
794.388	52931.62
795.136	14199.62
795.883	10069.62
796.629	11694.62
797.376	9107.62
798.123	9675.62
798.87	9050.62
799.616	9966.62
800.363	12322.62
801.109	12329.62
801.856	11370.62
802.602	8397.62
803.349	12072.62
804.095	12610.62
804.841	10687.62
805.587	10846.62
806.333	11019.62
807.079	11350.62
807.825	10992.62
808.57	10710.62
809.316	12733.62
810.062	10902.62
810.807	11431.62
811.553	12712.62
812.298	11801.62
813.043	11008.62
813.788	12077.62
814.534	10822.62
815.279	12288.62
816.024	11239.62
816.769	10955.62
817.514	11412.62
818.258	10908.62
819.003	12393.62
819.748	52931.62
820.492	49942.62
821.237	52931.62
821.981	13285.62
822.726	11991.62
823.47	12312.62
824.214	12218.62
824.958	11175.62
825.702	11361.62
826.446	11604.62
827.19	11598.62
827.934	12622.62
828.678	11404.62
829.421	12843.62
830.165	11415.62
830.909	11059.62
831.652	10870.62
832.395	11980.62
833.139	11963.62
833.882	13700.62
834.625	11112.62
835.368	11029.62
836.111	9850.62
836.854	10768.62
837.597	11408.62
838.34	11700.62
839.083	11578.62
839.825	11887.62
840.568	9638.62
841.311	11112.62
842.053	12209.62
842.795	9875.62
843.538	10741.62
844.28	9855.62
845.022	9411.62
845.764	13449.62
846.506	9265.62
847.248	10253.62
847.99	11247.62
848.732	11223.62
849.474	10361.62
850.215	9186.62
850.957	8798.62
851.698	9927.62
852.44	11335.62
853.181	10156.62
853.922	12155.62
854.664	10408.62
855.405	12295.62
856.146	9095.62
856.887	10498.62
857.628	12123.62
858.369	9128.62
859.109	11884.62
859.85	10130.62
860.591	11725.62
861.331	9630.62
862.072	8946.62
862.812	8519.62
863.553	9609.62
864.293	11890.62
865.033	10142.62
865.773	10801.62
866.513	9227.62
867.253	9491.62
867.993	9962.62
868.733	10552.62
869.473	10916.62
870.213	11770.62
870.952	9245.62
871.692	10416.62
872.431	9618.62
873.171	10264.62
873.91	9808.62
874.649	8595.62
875.388	10627.62
876.128	10290.62
876.867	9082.62
877.606	10555.62
878.345	10148.62
879.083	9667.62
879.822	9335.62
880.561	10542.62
881.299	9932.62
882.038	10065.62
882.777	11097.62
883.515	11917.62
884.253	52931.62
884.992	51765.62
885.73	10560.62
886.468	10303.62
887.206	12673.62
887.944	10982.62
888.682	11331.62
889.42	10499.62
890.157	10812.62
890.895	9762.62
891.633	22254.62
892.37	10608.62
893.108	10753.62
893.845	10640.62
894.583	10682.62
895.32	8971.62
896.057	9423.62
896.794	10520.62
897.531	11300.62
898.268	9988.62
899.005	9652.62
899.742	10406.62
900.479	9914.62
901.215	10323.62
901.952	10216.62
902.689	9131.62
903.425	8759.62
904.162	9127.62
904.898	10668.62
905.634	11767.62
906.37	10680.62
907.106	8983.62
907.843	10816.62
908.579	10149.62
909.314	8058.62
910.05	10053.62
910.786	10134.62
911.522	8860.62
912.257	11393.62
912.993	10463.62
913.728	9735.62
914.464	10078.62
915.199	9650.62
915.935	9013.62
916.67	9810.62
917.405	10647.62
918.14	10712.62
918.875	10685.62
919.61	11569.62
920.345	11737.62
921.08	12036.62
921.814	10306.62
922.549	9563.62
923.284	14286.62
924.018	9791.62
924.752	11825.62
925.487	10592.62
926.221	10968.62
926.955	10347.62
927.69	9345.62
928.424	10242.62
929.158	10942.62
929.892	9679.62
930.625	10816.62
931.359	12156.62
932.093	11043.62
932.827	9693.62
933.56	10016.62
934.294	8850.62
935.027	10691.62
935.761	11309.62
936.494	10166.62
937.227	9610.62
937.96	11053.62
938.693	11313.62
939.426	9457.62
940.159	11940.62
940.892	10441.62
941.625	11894.62
942.358	11436.62
943.091	10110.62
943.823	9221.62
944.556	8811.62
945.288	9786.62
946.021	10812.62
946.753	9731.62
947.485	11132.62
948.217	10406.62
948.95	10635.62
949.682	8954.62
950.414	9433.62
951.146	10342.62
951.877	9746.62
952.609	10359.62
953.341	10731.62
954.073	11767.62
954.804	10577.62
955.536	10123.62
956.267	10943.62
956.998	9399.62
957.73	9309.62
958.461	9510.62
959.192	9278.62
959.923	11734.62
960.654	10580.62
961.385	10160.62
962.116	10509.62
962.847	9880.62
963.578	10305.62
964.308	10041.62
965.039	8855.62
965.769	10596.62
966.5	10871.62
967.23	9627.62
967.961	10519.62
968.691	11197.62
969.421	8904.62
970.151	11159.62
970.881	9202.62
971.611	11410.62
972.341	10480.62
973.071	11380.62
973.801	11762.62
974.53	9620.62
975.26	9870.62
975.99	10431.62
976.719	11472.62
977.448	9838.62
978.178	10026.62
978.907	10895.62
979.636	9299.62
980.365	11250.62
981.095	11892.62
981.824	11107.62
982.553	10499.62
983.281	9808.62
984.01	13.62
984.739	-443.38
985.468	-745.38
986.196	-1294.38
986.925	14375.62
987.653	10317.62
988.382	12183.62
989.11	10972.62
989.838	11093.62
990.566	12542.62
991.295	10013.62
992.023	11790.62
992.751	12015.62
993.478	10035.62
994.206	11146.62
994.934	10482.62
995.662	-363.38
996.389	-913.38
997.117	2302.62
997.845	1443.62
