Data from SampleKW32_QEPB07591_00002.txt Node
Date: Thu Aug 22 15:28:21 EDT 2019
User: wcc
Spectrometer: QEPB0759
Trigger mode: 0
Integration Time (sec): 1.749000E0
Scans to average: 1
Electric dark correction enabled: true
Nonlinearity correction enabled: true
Boxcar width: 0
XAxis mode: Wavelengths
Number of Pixels in Spectrum: 1044
>>>>>Begin Spectral Data<<<<<
197.938	640.69
198.749	620.19
199.559	568.94
200.369	568.94
201.179	592.52
201.988	572.02
202.798	714.48
203.608	573.04
204.417	589.44
205.227	551.52
206.036	631.47
206.846	627.37
207.655	660.16
208.464	632.49
209.273	657.09
210.082	568.94
210.891	577.14
211.7	581.24
212.508	576.12
213.317	545.37
214.125	521.79
214.934	561.77
215.742	568.94
216.55	560.74
217.359	533.07
218.167	573.04
218.975	663.24
219.782	550.49
220.59	554.59
221.398	525.89
222.206	721.65
223.013	607.89
223.82	536.14
224.628	550.49
225.435	579.19
226.242	636.59
227.049	623.27
227.856	566.89
228.663	610.97
229.47	590.47
230.277	597.64
231.083	582.27
231.89	556.64
232.696	623.27
233.502	580.22
234.309	565.87
235.115	627.37
235.921	604.82
236.727	523.84
237.533	660.16
238.339	630.44
239.144	601.74
239.95	726.77
240.756	615.07
241.561	598.67
242.366	553.57
243.172	631.47
243.977	661.19
244.782	627.37
245.587	620.19
246.392	642.74
247.197	516.66
248.001	537.17
248.806	580.22
249.611	566.89
250.415	616.09
251.219	585.34
252.024	622.24
252.828	545.37
253.632	567.92
254.436	551.52
255.24	644.79
256.044	648.89
256.848	588.42
257.651	548.44
258.455	590.47
259.258	608.92
260.062	49414.97
260.865	644.79
261.668	616.09
262.471	554.59
263.274	643.77
264.077	542.29
264.88	597.64
265.683	544.34
266.486	593.54
267.288	655.04
268.091	534.09
268.893	576.12
269.696	611.99
270.498	608.92
271.3	604.82
272.102	672.46
272.904	594.57
273.706	592.52
274.508	602.77
275.309	614.04
276.111	608.92
276.913	518.71
277.714	510.51
278.515	564.84
279.317	657.09
280.118	534.09
280.919	617.12
281.72	579.19
282.521	637.62
283.322	557.67
284.122	605.84
284.923	627.37
285.724	576.12
286.524	577.14
287.325	708.33
288.125	531.02
288.925	568.94
289.725	604.82
290.525	689.88
291.325	590.47
292.125	618.14
292.925	645.82
293.724	545.37
294.524	521.79
295.324	545.37
296.123	596.62
296.922	589.44
297.722	892.75
298.521	614.04
299.32	708.33
300.119	522.81
300.918	616.09
301.716	725.75
302.515	584.32
303.314	662.21
304.112	573.04
304.911	688.86
305.709	581.24
306.507	651.96
307.306	599.69
308.104	573.04
308.902	610.97
309.7	587.39
310.498	654.01
311.295	505.39
312.093	652.99
312.891	700.13
313.688	625.32
314.485	600.72
315.283	723.7
316.08	630.44
316.877	587.39
317.674	579.19
318.471	495.13
319.268	564.84
320.065	616.09
320.862	630.44
321.658	595.59
322.455	665.29
323.251	551.52
324.047	539.22
324.844	709.35
325.64	540.24
326.436	608.92
327.232	578.17
328.028	606.87
328.824	548.44
329.62	634.54
330.415	730.87
331.211	621.22
332.006	601.74
332.802	665.29
333.597	601.74
334.392	667.34
335.187	632.49
335.982	563.82
336.777	642.74
337.572	586.37
338.367	630.44
339.162	662.21
339.956	595.59
340.751	631.47
341.545	648.89
342.34	662.21
343.134	546.39
343.928	669.39
344.722	658.11
345.516	562.79
346.31	553.57
347.104	603.79
347.898	601.74
348.691	589.44
349.485	523.84
350.278	636.59
351.072	710.38
351.865	7836.37
352.658	634.54
353.452	698.08
354.245	586.37
355.038	635.57
355.83	586.37
356.623	575.09
357.416	577.14
358.209	582.27
359.001	559.72
359.794	626.34
360.586	633.52
361.378	657.09
362.17	580.22
362.963	545.37
363.755	703.21
364.546	529.99
365.338	624.29
366.13	636.59
366.922	611.99
367.713	596.62
368.505	599.69
369.296	570.99
370.088	495.13
370.879	555.62
371.67	592.52
372.461	549.47
373.252	585.34
374.043	666.31
374.834	504.36
375.625	631.47
376.415	670.41
377.206	609.94
377.996	584.32
378.787	703.21
379.577	517.69
380.367	503.34
381.157	617.12
381.947	586.37
382.737	609.94
383.527	624.29
384.317	697.06
385.107	591.49
385.896	661.19
386.686	617.12
387.475	645.82
388.265	584.32
389.054	850.75
389.843	600.72
390.632	608.92
391.421	628.39
392.21	690.91
392.999	564.84
393.788	641.72
394.576	652.99
395.365	630.44
396.154	609.94
396.942	600.72
397.73	636.59
398.519	641.72
399.307	646.84
400.095	635.57
400.883	728.82
401.671	649.91
402.459	655.04
403.246	594.57
404.034	622.24
404.822	615.07
405.609	726.77
406.396	741.12
407.184	573.04
407.971	701.16
408.758	683.73
409.545	512.56
410.332	696.03
411.119	705.25
411.906	577.14
412.693	686.81
413.479	721.65
414.266	638.64
415.052	690.91
415.839	680.66
416.625	642.74
417.411	739.07
418.197	752.39
418.983	794.4
419.769	731.9
420.555	677.59
421.341	689.88
422.127	707.3
422.912	674.51
423.698	757.52
424.483	665.29
425.269	644.79
426.054	604.82
426.839	728.82
427.624	667.34
428.409	689.88
429.194	703.21
429.979	742.15
430.764	756.49
431.549	728.82
432.333	711.4
433.118	643.77
433.902	763.66
434.687	718.58
435.471	748.29
436.255	758.54
437.039	726.77
437.823	741.12
438.607	740.1
439.391	773.91
440.175	758.54
440.958	747.27
441.742	772.88
442.526	700.13
443.309	792.35
444.092	861
444.876	800.55
445.659	781.08
446.442	878.41
447.225	858.95
448.008	895.83
448.791	891.73
449.573	946.02
450.356	925.53
451.139	899.92
451.921	822.06
452.704	877.39
453.486	850.75
454.268	891.73
455.05	872.26
455.833	847.68
456.615	891.73
457.396	875.34
458.178	937.82
458.96	821.04
459.742	880.46
460.523	867.14
461.305	866.12
462.086	935.77
462.868	1002.35
463.649	914.26
464.43	857.92
465.211	1007.47
465.992	859.97
466.773	1060.72
467.554	947.04
468.335	961.38
469.115	953.19
469.896	844.6
470.676	785.18
471.457	930.65
472.237	923.48
473.018	913.24
473.798	881.48
474.578	878.41
475.358	827.19
476.138	753.42
476.918	766.74
477.697	807.72
478.477	897.87
479.257	847.68
480.036	784.16
480.816	748.29
481.595	851.78
482.374	801.57
483.153	837.43
483.932	799.52
484.711	767.76
485.49	775.96
486.269	716.53
487.048	672.46
487.827	794.4
488.605	725.75
489.384	704.23
490.162	770.84
490.941	815.92
491.719	702.18
492.497	712.43
493.275	692.96
494.053	731.9
494.831	665.29
495.609	714.48
496.387	720.63
497.164	726.77
497.942	686.81
498.72	660.16
499.497	683.73
500.274	579.19
501.052	659.14
501.829	685.78
502.606	608.92
503.383	655.04
504.16	668.36
504.937	650.94
505.714	589.44
506.49	707.3
507.267	566.89
508.043	644.79
508.82	711.4
509.596	551.52
510.373	584.32
511.149	544.34
511.925	586.37
512.701	607.89
513.477	693.98
514.253	606.87
515.029	585.34
515.804	592.52
516.58	678.61
517.356	584.32
518.131	698.08
518.906	562.79
519.682	605.84
520.457	576.12
521.232	630.44
522.007	623.27
522.782	554.59
523.557	532.04
524.332	532.04
525.107	665.29
525.881	551.52
526.656	509.49
527.43	558.69
528.205	568.94
528.979	534.09
529.753	569.97
530.527	648.89
531.302	554.59
532.076	600.72
532.849	584.32
533.623	580.22
534.397	535.12
535.171	584.32
535.944	639.67
536.718	536.14
537.491	718.58
538.265	493.08
539.038	611.99
539.811	603.79
540.584	586.37
541.357	574.07
542.13	689.88
542.903	698.08
543.676	597.64
544.449	607.89
545.221	634.54
545.994	574.07
546.766	609.94
547.539	554.59
548.311	639.67
549.083	611.99
549.855	452.08
550.627	656.06
551.399	603.79
552.171	684.76
552.943	642.74
553.715	545.37
554.486	591.49
555.258	544.34
556.029	542.29
556.801	634.54
557.572	522.81
558.343	566.89
559.114	647.86
559.886	626.34
560.657	597.64
561.427	512.56
562.198	537.17
562.969	618.14
563.74	578.17
564.51	564.84
565.281	670.41
566.051	555.62
566.822	561.77
567.592	578.17
568.362	574.07
569.132	564.84
569.902	757.52
570.672	540.24
571.442	626.34
572.212	618.14
572.982	559.72
573.751	630.44
574.521	595.59
575.29	708.33
576.06	624.29
576.829	590.47
577.598	560.74
578.367	528.96
579.136	558.69
579.905	603.79
580.674	660.16
581.443	624.29
582.212	577.14
582.981	644.79
583.749	558.69
584.518	603.79
585.286	677.59
586.054	720.63
586.823	609.94
587.591	543.32
588.359	654.01
589.127	605.84
589.895	684.76
590.663	693.98
591.431	629.42
592.198	654.01
592.966	668.36
593.734	707.3
594.501	606.87
595.268	637.62
596.036	755.47
596.803	634.54
597.57	650.94
598.337	666.31
599.104	682.71
599.871	778.01
600.638	813.87
601.405	875.34
602.171	815.92
602.938	1040.24
603.704	875.34
604.471	928.6
605.237	1097.59
606.004	1038.19
606.77	1136.49
607.536	1223.51
608.302	1243.99
609.068	1268.55
609.834	1238.87
610.599	1334.06
611.365	1246.04
612.131	1351.46
612.896	1404.67
613.662	1486.53
614.427	1428.21
615.193	1427.18
615.958	1445.6
616.723	1489.6
617.488	1378.07
618.253	1483.46
619.018	1492.67
619.783	1460.95
620.548	1558.14
621.312	1490.62
622.077	1490.62
622.842	1539.73
623.606	1678.83
624.37	1509.04
625.135	1576.55
625.899	1536.66
626.663	1501.87
627.427	1559.16
628.191	1541.77
628.955	1603.15
629.719	1506.99
630.483	1506.99
631.246	1391.37
632.01	1447.65
632.773	1554.05
633.537	1409.79
634.3	1455.83
635.063	1413.88
635.827	1346.34
636.59	1402.63
637.353	1442.53
638.116	1460.95
638.879	1336.11
639.641	1511.08
640.404	1417.97
641.167	1367.83
641.929	1411.83
642.692	1294.14
643.454	1311.54
644.216	1375
644.979	1375
645.741	1366.81
646.503	1403.65
647.265	1385.23
648.027	1415.93
648.789	1266.51
649.551	1322.8
650.312	1316.66
651.074	1291.07
651.835	1251.15
652.597	1274.7
653.358	1302.33
654.12	1268.55
654.881	1247.06
655.642	1268.55
656.403	1239.89
657.164	1290.05
657.925	1258.32
658.686	1282.88
659.447	1190.76
660.207	1198.95
660.968	1283.91
661.728	1322.8
662.489	1265.48
663.249	1271.63
664.01	1222.49
664.77	1301.31
665.53	1299.26
666.29	1206.11
667.05	1315.64
667.81	1237.85
668.57	1252.18
669.329	1243.99
670.089	1259.34
670.849	1274.7
671.608	1317.68
672.368	1212.25
673.127	1304.38
673.886	1215.33
674.646	1203.04
675.405	1267.53
676.164	1307.45
676.923	1279.81
677.682	1370.9
678.44	1252.18
679.199	1180.52
679.958	1443.56
680.717	1241.94
681.475	1197.92
682.233	1230.68
682.992	1173.35
683.75	1243.99
684.508	1279.81
685.266	1169.26
686.024	1237.85
686.782	1183.59
687.54	1246.04
688.298	1224.54
689.056	1274.7
689.814	1083.25
690.571	1172.33
691.329	1145.71
692.086	1114.99
692.843	1091.44
693.601	1153.9
694.358	1149.8
695.115	1040.24
695.872	1049.46
696.629	992.11
697.386	1150.83
698.143	1141.61
698.9	1010.54
699.656	1025.9
700.413	1055.6
701.169	1097.59
701.926	1031.02
702.682	1041.26
703.438	999.28
704.195	1132.4
704.951	956.26
705.707	943.97
706.463	949.09
707.219	989.03
707.974	952.16
708.73	912.21
709.486	977.77
710.241	994.16
710.997	983.91
711.752	1014.64
712.508	1003.37
713.263	970.6
714.018	976.74
714.773	984.94
715.528	1071.99
716.283	993.13
717.038	884.56
717.793	933.73
718.548	896.85
719.303	910.17
720.057	858.95
720.812	862.02
721.566	786.2
722.321	852.8
723.075	825.14
723.829	871.24
724.583	808.75
725.337	820.02
726.091	893.78
726.845	848.7
727.599	742.15
728.353	834.36
729.106	776.98
729.86	905.04
730.614	745.22
731.367	6225.99
732.12	805.67
732.874	751.37
733.627	820.02
734.38	830.26
735.133	820.02
735.886	756.49
736.639	749.32
737.392	790.3
738.145	729.85
738.897	844.6
739.65	784.16
740.403	796.45
741.155	792.35
741.907	776.98
742.66	847.68
743.412	629.42
744.164	762.64
744.916	627.37
745.668	682.71
746.42	749.32
747.172	646.84
747.924	614.04
748.676	542.29
749.427	579.19
750.179	617.12
750.93	667.34
751.682	533.07
752.433	646.84
753.184	703.21
753.935	565.87
754.687	544.34
755.438	637.62
756.189	596.62
756.939	560.74
757.69	541.27
758.441	644.79
759.192	608.92
759.942	655.04
760.693	666.31
761.443	626.34
762.194	569.97
762.944	539.22
763.694	649.91
764.444	564.84
765.194	644.79
765.944	609.94
766.694	643.77
767.444	693.98
768.194	656.06
768.943	546.39
769.693	664.26
770.443	625.32
771.192	655.04
771.941	507.44
772.691	632.49
773.44	611.99
774.189	660.16
774.938	615.07
775.687	581.24
776.436	609.94
777.185	639.67
777.934	559.72
778.683	613.02
779.431	608.92
780.18	641.72
780.928	594.57
781.677	603.79
782.425	634.54
783.173	662.21
783.922	662.21
784.67	711.4
785.418	654.01
786.166	705.25
786.914	559.72
787.661	614.04
788.409	614.04
789.157	592.52
789.904	595.59
790.652	670.41
791.399	628.39
792.147	639.67
792.894	666.31
793.641	601.74
794.388	5246.95
795.136	644.79
795.883	573.04
796.629	663.24
797.376	521.79
798.123	574.07
798.87	514.61
799.616	572.02
800.363	712.43
801.109	704.23
801.856	675.54
802.602	490.01
803.349	702.18
804.095	748.29
804.841	618.14
805.587	631.47
806.333	625.32
807.079	649.91
807.825	616.09
808.57	620.19
809.316	724.73
810.062	630.44
810.807	650.94
811.553	732.92
812.298	675.54
813.043	617.12
813.788	678.61
814.534	621.22
815.279	715.5
816.024	651.96
816.769	643.77
817.514	657.09
818.258	639.67
819.003	711.4
819.748	15549.76
820.492	618.14
821.237	4712.99
821.981	601.74
822.726	708.33
823.47	700.13
824.214	709.35
824.958	640.69
825.702	648.89
826.446	657.09
827.19	676.56
827.934	734.97
828.678	650.94
829.421	731.9
830.165	655.04
830.909	628.39
831.652	628.39
832.395	686.81
833.139	686.81
833.882	794.4
834.625	636.59
835.368	636.59
836.111	566.89
836.854	620.19
837.597	661.19
838.34	670.41
839.083	666.31
839.825	698.08
840.568	539.22
841.311	640.69
842.053	700.13
842.795	563.82
843.538	613.02
844.28	577.14
845.022	545.37
845.764	760.59
846.506	544.34
847.248	584.32
847.99	657.09
848.732	644.79
849.474	601.74
850.215	519.74
850.957	515.64
851.698	578.17
852.44	662.21
853.181	597.64
853.922	713.45
854.664	603.79
855.405	707.3
856.146	531.02
856.887	615.07
857.628	693.98
858.369	520.76
859.109	678.61
859.85	581.24
860.591	666.31
861.331	560.74
862.072	523.84
862.812	484.88
863.553	548.44
864.293	689.88
865.033	581.24
865.773	622.24
866.513	531.02
867.253	539.22
867.993	575.09
868.733	598.67
869.473	642.74
870.213	667.34
870.952	534.09
871.692	604.82
872.431	548.44
873.171	587.39
873.91	565.87
874.649	493.08
875.388	618.14
876.128	586.37
876.867	532.04
877.606	607.89
878.345	585.34
879.083	560.74
879.822	549.47
880.561	604.82
881.299	574.07
882.038	585.34
882.777	652.99
883.515	690.91
884.253	7895.92
884.992	607.89
885.73	589.44
886.468	601.74
887.206	730.87
887.944	641.72
888.682	644.79
889.42	615.07
890.157	623.27
890.895	564.84
891.633	1271.63
892.37	613.02
893.108	640.69
893.845	632.49
894.583	597.64
895.32	517.69
896.057	532.04
896.794	614.04
897.531	657.09
898.268	577.14
899.005	549.47
899.742	598.67
900.479	575.09
901.215	590.47
901.952	567.92
902.689	527.94
903.425	505.39
904.162	534.09
904.898	618.14
905.634	675.54
906.37	625.32
907.106	509.49
907.843	620.19
908.579	573.04
909.314	475.66
910.05	580.22
910.786	575.09
911.522	517.69
912.257	640.69
912.993	582.27
913.728	557.67
914.464	567.92
915.199	552.54
915.935	518.71
916.67	555.62
917.405	620.19
918.14	615.07
918.875	623.27
919.61	671.44
920.345	681.68
921.08	698.08
921.814	596.62
922.549	555.62
923.284	825.14
924.018	557.67
924.752	684.76
925.487	620.19
926.221	634.54
926.955	595.59
927.69	536.14
928.424	592.52
929.158	626.34
929.892	555.62
930.625	628.39
931.359	702.18
932.093	645.82
932.827	546.39
933.56	569.97
934.294	514.61
935.027	616.09
935.761	656.06
936.494	581.24
937.227	554.59
937.96	645.82
938.693	647.86
939.426	554.59
940.159	655.04
940.892	593.54
941.625	661.19
942.358	671.44
943.091	573.04
943.823	534.09
944.556	505.39
945.288	563.82
946.021	624.29
946.753	565.87
947.485	644.79
948.217	593.54
948.95	618.14
949.682	527.94
950.414	526.91
951.146	582.27
951.877	568.94
952.609	601.74
953.341	613.02
954.073	681.68
954.804	608.92
955.536	573.04
956.267	626.34
956.998	547.42
957.73	544.34
958.461	541.27
959.192	527.94
959.923	675.54
960.654	596.62
961.385	566.89
962.116	599.69
962.847	558.69
963.578	596.62
964.308	569.97
965.039	502.31
965.769	604.82
966.5	624.29
967.23	574.07
967.961	605.84
968.691	642.74
969.421	512.56
970.151	648.89
970.881	527.94
971.611	656.06
972.341	598.67
973.071	665.29
973.801	674.51
974.53	551.52
975.26	587.39
975.99	601.74
976.719	656.06
977.448	565.87
978.178	585.34
978.907	621.22
979.636	531.02
980.365	654.01
981.095	666.31
981.824	648.89
982.553	613.02
983.281	563.82
984.01	1.8
984.739	-30.01
985.468	-49.51
986.196	-79.27
986.925	824.11
987.653	596.62
988.382	711.4
989.11	616.09
989.838	649.91
990.566	742.15
991.295	588.42
992.023	672.46
992.751	682.71
993.478	581.24
994.206	645.82
994.934	598.67
995.662	-6.41
996.389	-52.59
997.117	127.99
997.845	87.98
