Data from SampleKW32_QEPB07591_00010.txt Node
Date: Thu Aug 22 15:28:35 EDT 2019
User: wcc
Spectrometer: QEPB0759
Trigger mode: 0
Integration Time (sec): 1.749000E0
Scans to average: 1
Electric dark correction enabled: true
Nonlinearity correction enabled: true
Boxcar width: 0
XAxis mode: Wavelengths
Number of Pixels in Spectrum: 1044
>>>>>Begin Spectral Data<<<<<
197.938	646.71
198.749	618.01
199.559	577.02
200.369	563.69
201.179	583.17
201.988	601.62
202.798	709.23
203.608	555.49
204.417	582.14
205.227	551.39
206.036	630.31
206.846	631.34
207.655	666.18
208.464	630.31
209.273	661.06
210.082	575.99
210.891	572.91
211.7	582.14
212.508	572.91
213.317	567.79
214.125	521.66
214.934	580.09
215.742	564.71
216.55	564.71
217.359	538.06
218.167	572.91
218.975	665.16
219.782	543.19
220.59	542.16
221.398	544.21
222.206	719.47
223.013	600.59
223.82	532.94
224.628	559.59
225.435	586.24
226.242	642.61
227.049	624.16
227.856	557.54
228.663	611.86
229.47	592.39
230.277	594.44
231.083	575.99
231.89	568.81
232.696	618.01
233.502	584.19
234.309	556.51
235.115	621.09
235.921	608.79
236.727	493.98
237.533	661.06
238.339	637.49
239.144	611.86
239.95	723.57
240.756	611.86
241.561	615.96
242.366	582.14
243.172	625.19
243.977	677.46
244.782	615.96
245.587	629.29
246.392	651.84
247.197	536.01
248.001	528.84
248.806	570.86
249.611	558.56
250.415	619.04
251.219	590.34
252.024	606.74
252.828	565.74
253.632	565.74
254.436	553.44
255.24	665.16
256.044	643.64
256.848	574.97
257.651	548.31
258.455	598.54
259.258	592.39
260.062	51110.67
260.865	647.74
261.668	628.26
262.471	562.66
263.274	634.41
264.077	528.84
264.88	593.42
265.683	547.29
266.486	591.37
267.288	661.06
268.091	527.81
268.893	589.32
269.696	626.21
270.498	612.89
271.3	620.06
272.102	674.38
272.904	583.17
273.706	591.37
274.508	590.34
275.309	622.11
276.111	619.04
276.913	528.84
277.714	509.36
278.515	571.89
279.317	656.96
280.118	529.86
280.919	595.47
281.72	585.22
282.521	635.44
283.322	552.41
284.122	625.19
284.923	631.34
285.724	574.97
286.524	585.22
287.325	714.35
288.125	528.84
288.925	582.14
289.725	590.34
290.525	692.83
291.325	600.59
292.125	623.14
292.925	644.66
293.724	529.86
294.524	525.76
295.324	545.24
296.123	604.69
296.922	596.49
297.722	874.18
298.521	612.89
299.32	712.3
300.119	520.64
300.918	608.79
301.716	717.42
302.515	582.14
303.314	682.58
304.112	581.12
304.911	685.66
305.709	575.99
306.507	642.61
307.306	607.76
308.104	574.97
308.902	595.47
309.7	594.44
310.498	662.08
311.295	523.71
312.093	669.26
312.891	684.63
313.688	648.76
314.485	608.79
315.283	732.79
316.08	624.16
316.877	582.14
317.674	585.22
318.471	504.23
319.268	558.56
320.065	626.21
320.862	635.44
321.658	593.42
322.455	653.89
323.251	540.11
324.047	542.16
324.844	703.08
325.64	534.99
326.436	602.64
327.232	582.14
328.028	594.44
328.824	544.21
329.62	656.96
330.415	734.84
331.211	629.29
332.006	602.64
332.802	660.04
333.597	585.22
334.392	653.89
335.187	633.39
335.982	570.86
336.777	631.34
337.572	580.09
338.367	640.56
339.162	664.13
339.956	603.66
340.751	636.46
341.545	656.96
342.34	653.89
343.134	547.29
343.928	653.89
344.722	670.28
345.516	567.79
346.31	557.54
347.104	619.04
347.898	605.71
348.691	602.64
349.485	521.66
350.278	634.41
351.072	696.93
351.865	7283.82
352.658	624.16
353.452	679.51
354.245	575.99
355.038	638.51
355.83	584.19
356.623	581.12
357.416	570.86
358.209	593.42
359.001	560.61
359.794	607.76
360.586	641.59
361.378	660.04
362.17	569.84
362.963	544.21
363.755	700
364.546	529.86
365.338	624.16
366.13	643.64
366.922	615.96
367.713	582.14
368.505	579.07
369.296	580.09
370.088	499.11
370.879	554.46
371.67	598.54
372.461	544.21
373.252	598.54
374.043	669.26
374.834	488.86
375.625	637.49
376.415	669.26
377.206	609.81
377.996	580.09
378.787	706.15
379.577	526.79
380.367	495.01
381.157	621.09
381.947	588.29
382.737	613.91
383.527	624.16
384.317	708.2
385.107	606.74
385.896	650.81
386.686	611.86
387.475	639.54
388.265	603.66
389.054	851.65
389.843	593.42
390.632	606.74
391.421	636.46
392.21	688.73
392.999	562.66
393.788	642.61
394.576	649.79
395.365	632.36
396.154	611.86
396.942	595.47
397.73	635.44
398.519	648.76
399.307	649.79
400.095	631.34
400.883	714.35
401.671	647.74
402.459	651.84
403.246	589.32
404.034	627.24
404.822	623.14
405.609	703.08
406.396	733.82
407.184	563.69
407.971	686.68
408.758	681.56
409.545	520.64
410.332	709.23
411.119	696.93
411.906	589.32
412.693	687.71
413.479	708.2
414.266	632.36
415.052	698.98
415.839	667.21
416.625	654.91
417.411	724.6
418.197	753.29
418.983	789.15
419.769	731.77
420.555	679.51
421.341	680.53
422.127	684.63
422.912	671.31
423.698	759.44
424.483	677.46
425.269	648.76
426.054	598.54
426.839	714.35
427.624	652.86
428.409	670.28
429.194	708.2
429.979	748.17
430.764	752.26
431.549	722.55
432.333	724.6
433.118	642.61
433.902	749.19
434.687	694.88
435.471	758.41
436.255	762.51
437.039	734.84
437.823	738.94
438.607	738.94
439.391	752.26
440.175	763.54
440.958	733.82
441.742	755.34
442.526	696.93
443.309	787.1
444.092	855.74
444.876	790.18
445.659	786.08
446.442	870.09
447.225	848.57
448.008	884.43
448.791	865.99
449.573	944.86
450.356	916.18
451.139	890.58
451.921	794.27
452.704	887.5
453.486	831.16
454.268	887.5
455.05	865.99
455.833	843.45
456.615	894.67
457.396	881.36
458.178	911.06
458.96	799.4
459.742	882.38
460.523	862.92
461.305	857.79
462.086	911.06
462.868	999.15
463.649	903.89
464.43	857.79
465.211	985.83
465.992	834.23
466.773	1047.28
467.554	939.74
468.335	953.06
469.115	917.21
469.896	853.7
470.676	774.81
471.457	931.55
472.237	923.35
473.018	909.01
473.798	869.06
474.578	884.43
475.358	820.91
476.138	742.02
476.918	760.46
477.697	793.25
478.477	904.92
479.257	828.08
480.036	776.86
480.816	735.87
481.595	835.26
482.374	791.2
483.153	840.38
483.932	789.15
484.711	776.86
485.49	763.54
486.269	713.32
487.048	670.28
487.827	791.2
488.605	731.77
489.384	691.8
490.162	760.46
490.941	805.54
491.719	694.88
492.497	715.37
493.275	707.18
494.053	732.79
494.831	664.13
495.609	711.28
496.387	718.45
497.164	708.2
497.942	695.9
498.72	668.23
499.497	679.51
500.274	572.91
501.052	645.69
501.829	706.15
502.606	614.94
503.383	651.84
504.16	682.58
504.937	667.21
505.714	575.99
506.49	707.18
507.267	542.16
508.043	637.49
508.82	711.28
509.596	566.76
510.373	584.19
511.149	564.71
511.925	588.29
512.701	624.16
513.477	668.23
514.253	613.91
515.029	586.24
515.804	603.66
516.58	673.36
517.356	596.49
518.131	704.1
518.906	561.64
519.682	621.09
520.457	590.34
521.232	614.94
522.007	633.39
522.782	556.51
523.557	543.19
524.332	539.09
525.107	682.58
525.881	550.36
526.656	510.38
527.43	547.29
528.205	581.12
528.979	526.79
529.753	571.89
530.527	645.69
531.302	558.56
532.076	593.42
532.849	582.14
533.623	586.24
534.397	539.09
535.171	610.84
535.944	648.76
536.718	525.76
537.491	717.42
538.265	502.18
539.038	615.96
539.811	625.19
540.584	579.07
541.357	558.56
542.13	682.58
542.903	693.85
543.676	604.69
544.449	598.54
545.221	623.14
545.994	580.09
546.766	611.86
547.539	540.11
548.311	636.46
549.083	598.54
549.855	459.12
550.627	665.16
551.399	606.74
552.171	706.15
552.943	631.34
553.715	556.51
554.486	580.09
555.258	549.34
556.029	543.19
556.801	620.06
557.572	523.71
558.343	554.46
559.114	646.71
559.886	633.39
560.657	585.22
561.427	495.01
562.198	547.29
562.969	609.81
563.74	592.39
564.51	557.54
565.281	676.43
566.051	560.61
566.822	565.74
567.592	595.47
568.362	564.71
569.132	564.71
569.902	764.56
570.672	527.81
571.442	633.39
572.212	623.14
572.982	578.04
573.751	620.06
574.521	596.49
575.29	709.23
576.06	632.36
576.829	599.57
577.598	560.61
578.367	537.04
579.136	554.46
579.905	632.36
580.674	670.28
581.443	640.56
582.212	575.99
582.981	650.81
583.749	561.64
584.518	587.27
585.286	692.83
586.054	736.89
586.823	643.64
587.591	561.64
588.359	654.91
589.127	618.01
589.895	694.88
590.663	693.85
591.431	642.61
592.198	655.94
592.966	666.18
593.734	705.13
594.501	609.81
595.268	637.49
596.036	739.97
596.803	616.99
597.57	645.69
598.337	662.08
599.104	691.8
599.871	777.88
600.638	806.57
601.405	881.36
602.171	802.47
602.938	1038.06
603.704	847.55
604.471	905.94
605.237	1084.15
606.004	1015.53
606.77	1129.2
607.536	1203.94
608.302	1212.13
609.068	1226.46
609.834	1226.46
610.599	1298.11
611.365	1218.27
612.131	1313.46
612.896	1378.96
613.662	1453.66
614.427	1407.61
615.193	1390.22
615.958	1418.87
616.723	1466.96
617.488	1337
618.253	1457.75
619.018	1458.78
619.783	1432.17
620.548	1532.44
621.312	1469.01
622.077	1420.92
622.842	1499.7
623.606	1624.5
624.37	1494.58
625.135	1536.53
625.899	1511.98
626.663	1462.87
627.427	1530.39
628.191	1488.45
628.955	1571.31
629.719	1470.03
630.483	1478.22
631.246	1385.1
632.01	1405.57
632.773	1532.44
633.537	1363.61
634.3	1420.92
635.063	1384.08
635.827	1314.49
636.59	1367.7
637.353	1440.36
638.116	1439.33
638.879	1287.87
639.641	1477.19
640.404	1381.01
641.167	1339.05
641.929	1399.43
642.692	1281.73
643.454	1285.83
644.216	1362.59
644.979	1362.59
645.741	1338.03
646.503	1390.22
647.265	1366.68
648.027	1413.75
648.789	1256.14
649.551	1309.37
650.312	1292.99
651.074	1251.03
651.835	1223.39
652.597	1286.85
653.358	1292.99
654.12	1256.14
654.881	1219.29
655.642	1248.98
656.403	1204.96
657.164	1263.31
657.925	1243.86
658.686	1259.21
659.447	1168.1
660.207	1188.58
660.968	1239.77
661.728	1316.53
662.489	1244.88
663.249	1236.69
664.01	1221.34
664.77	1290.95
665.53	1290.95
666.29	1211.1
667.05	1294.02
667.81	1222.36
668.57	1216.22
669.329	1220.32
670.089	1220.32
670.849	1246.93
671.608	1296.06
672.368	1194.72
673.127	1265.36
673.886	1210.08
674.646	1168.1
675.405	1242.84
676.164	1272.52
676.923	1262.29
677.682	1331.88
678.44	1233.62
679.199	1147.63
679.958	1425.01
680.717	1234.65
681.475	1184.49
682.233	1209.06
682.992	1171.18
683.75	1207.01
684.508	1251.03
685.266	1145.58
686.024	1209.06
686.782	1166.06
687.54	1225.43
688.298	1203.94
689.056	1236.69
689.814	1076.98
690.571	1178.34
691.329	1119.98
692.086	1098.48
692.843	1072.88
693.601	1109.74
694.358	1149.68
695.115	1032.94
695.872	1029.87
696.629	974.57
697.386	1114.86
698.143	1139.44
698.9	996.08
699.656	993
700.413	1020.65
701.169	1071.86
701.926	1008.37
702.682	1017.58
703.438	978.66
704.195	1118.96
704.951	941.79
705.707	946.91
706.463	931.55
707.219	987.88
707.974	942.82
708.73	888.53
709.486	957.16
710.241	976.62
710.997	975.59
711.752	1004.27
712.508	993
713.263	954.08
714.018	979.69
714.773	944.86
715.528	1058.55
716.283	993
717.038	881.36
717.793	926.43
718.548	898.77
719.303	899.79
720.057	836.28
720.812	830.13
721.566	780.95
722.321	846.52
723.075	833.21
723.829	862.92
724.583	789.15
725.337	818.86
726.091	889.55
726.845	841.4
727.599	742.02
728.353	827.06
729.106	759.44
729.86	896.72
730.614	733.82
731.367	6533.57
732.12	805.54
732.874	769.68
733.627	819.89
734.38	840.38
735.133	820.91
735.886	746.12
736.639	726.65
737.392	776.86
738.145	728.7
738.897	826.03
739.65	761.49
740.403	787.1
741.155	787.1
741.907	772.76
742.66	825.01
743.412	643.64
744.164	747.14
744.916	619.04
745.668	662.08
746.42	732.79
747.172	654.91
747.924	608.79
748.676	532.94
749.427	588.29
750.179	632.36
750.93	668.23
751.682	522.69
752.433	652.86
753.184	702.05
753.935	571.89
754.687	538.06
755.438	628.26
756.189	598.54
756.939	556.51
757.69	543.19
758.441	644.66
759.192	599.57
759.942	633.39
760.693	651.84
761.443	629.29
762.194	556.51
762.944	536.01
763.694	640.56
764.444	572.91
765.194	643.64
765.944	636.46
766.694	650.81
767.444	675.41
768.194	664.13
768.943	545.24
769.693	666.18
770.443	622.11
771.192	660.04
771.941	481.68
772.691	651.84
773.44	597.52
774.189	663.11
774.938	611.86
775.687	582.14
776.436	624.16
777.185	637.49
777.934	554.46
778.683	594.44
779.431	598.54
780.18	655.94
780.928	598.54
781.677	603.66
782.425	634.41
783.173	664.13
783.922	648.76
784.67	709.23
785.418	663.11
786.166	705.13
786.914	554.46
787.661	603.66
788.409	607.76
789.157	602.64
789.904	603.66
790.652	675.41
791.399	645.69
792.147	616.99
792.894	657.99
793.641	598.54
794.388	5560.21
795.136	649.79
795.883	573.94
796.629	664.13
797.376	522.69
798.123	559.59
798.87	513.46
799.616	565.74
800.363	706.15
801.109	703.08
801.856	659.01
802.602	484.75
803.349	703.08
804.095	728.7
804.841	616.99
805.587	625.19
806.333	630.31
807.079	648.76
807.825	627.24
808.57	613.91
809.316	719.47
810.062	631.34
810.807	654.91
811.553	736.89
812.298	677.46
813.043	644.66
813.788	707.18
814.534	616.99
815.279	697.95
816.024	648.76
816.769	635.44
817.514	667.21
818.258	629.29
819.003	716.4
819.748	15604.6
820.492	610.84
821.237	4701.69
821.981	607.76
822.726	697.95
823.47	713.32
824.214	697.95
824.958	653.89
825.702	649.79
826.446	657.99
827.19	665.16
827.934	721.52
828.678	657.99
829.421	737.92
830.165	669.26
830.909	635.44
831.652	628.26
832.395	682.58
833.139	687.71
833.882	790.18
834.625	645.69
835.368	622.11
836.111	571.89
836.854	629.29
837.597	667.21
838.34	674.38
839.083	661.06
839.825	689.76
840.568	548.31
841.311	653.89
842.053	702.05
842.795	558.56
843.538	618.01
844.28	570.86
845.022	548.31
845.764	768.66
846.506	531.91
847.248	594.44
847.99	641.59
848.732	656.96
849.474	600.59
850.215	531.91
850.957	516.54
851.698	578.04
852.44	657.99
853.181	577.02
853.922	698.98
854.664	605.71
855.405	716.4
856.146	529.86
856.887	607.76
857.628	703.08
858.369	538.06
859.109	684.63
859.85	588.29
860.591	673.36
861.331	556.51
862.072	516.54
862.812	487.83
863.553	562.66
864.293	674.38
865.033	588.29
865.773	606.74
866.513	541.14
867.253	554.46
867.993	570.86
868.733	598.54
869.473	635.44
870.213	678.48
870.952	534.99
871.692	604.69
872.431	557.54
873.171	599.57
873.91	584.19
874.649	495.01
875.388	612.89
876.128	597.52
876.867	534.99
877.606	605.71
878.345	587.27
879.083	556.51
879.822	522.69
880.561	604.69
881.299	571.89
882.038	581.12
882.777	647.74
883.515	684.63
884.253	7935.15
884.992	612.89
885.73	590.34
886.468	588.29
887.206	734.84
887.944	640.56
888.682	657.99
889.42	600.59
890.157	633.39
890.895	568.81
891.633	1294.02
892.37	607.76
893.108	638.51
893.845	625.19
894.583	615.96
895.32	513.46
896.057	545.24
896.794	599.57
897.531	645.69
898.268	577.02
899.005	550.36
899.742	587.27
900.479	579.07
901.215	600.59
901.952	572.91
902.689	540.11
903.425	495.01
904.162	528.84
904.898	610.84
905.634	680.53
906.37	610.84
907.106	510.38
907.843	633.39
908.579	585.22
909.314	450.92
910.05	577.02
910.786	583.17
911.522	523.71
912.257	644.66
912.993	610.84
913.728	557.54
914.464	567.79
915.199	542.16
915.935	511.41
916.67	559.59
917.405	620.06
918.14	623.14
918.875	618.01
919.61	664.13
920.345	673.36
921.08	703.08
921.814	598.54
922.549	558.56
923.284	818.86
924.018	558.56
924.752	677.46
925.487	609.81
926.221	619.04
926.955	606.74
927.69	532.94
928.424	598.54
929.158	634.41
929.892	557.54
930.625	620.06
931.359	701.03
932.093	635.44
932.827	565.74
933.56	591.37
934.294	509.36
935.027	618.01
935.761	655.94
936.494	565.74
937.227	562.66
937.96	633.39
938.693	640.56
939.426	532.94
940.159	664.13
940.892	608.79
941.625	686.68
942.358	664.13
943.091	581.12
943.823	542.16
944.556	520.64
945.288	569.84
946.021	623.14
946.753	564.71
947.485	634.41
948.217	588.29
948.95	607.76
949.682	528.84
950.414	528.84
951.146	599.57
951.877	563.69
952.609	606.74
953.341	618.01
954.073	674.38
954.804	614.94
955.536	570.86
956.267	636.46
956.998	549.34
957.73	554.46
958.461	551.39
959.192	527.81
959.923	676.43
960.654	607.76
961.385	578.04
962.116	596.49
962.847	569.84
963.578	588.29
964.308	590.34
965.039	516.54
965.769	610.84
966.5	616.99
967.23	562.66
967.961	603.66
968.691	639.54
969.421	511.41
970.151	654.91
970.881	541.14
971.611	661.06
972.341	611.86
973.071	653.89
973.801	690.78
974.53	569.84
975.26	578.04
975.99	598.54
976.719	670.28
977.448	573.94
978.178	580.09
978.907	623.14
979.636	544.21
980.365	650.81
981.095	688.73
981.824	646.71
982.553	612.89
983.281	561.64
984.01	3.72
984.739	-25.01
985.468	-48.61
986.196	-84.53
986.925	823.99
987.653	596.49
988.382	694.88
989.11	638.51
989.838	645.69
990.566	720.5
991.295	565.74
992.023	682.58
992.751	689.76
993.478	590.34
994.206	637.49
994.934	605.71
995.662	-11.67
996.389	-49.64
997.117	135.05
997.845	80.67
