Data from SampleKW32_QEPB07591_00007.txt Node
Date: Thu Aug 22 15:28:30 EDT 2019
User: wcc
Spectrometer: QEPB0759
Trigger mode: 0
Integration Time (sec): 1.749000E0
Scans to average: 1
Electric dark correction enabled: true
Nonlinearity correction enabled: true
Boxcar width: 0
XAxis mode: Wavelengths
Number of Pixels in Spectrum: 1044
>>>>>Begin Spectral Data<<<<<
197.938	640.43
198.749	607.64
199.559	574.84
200.369	554.34
201.179	591.24
201.988	584.06
202.798	711.15
203.608	584.06
204.417	588.16
205.227	554.34
206.036	627.11
206.846	627.11
207.655	678.35
208.464	632.24
209.273	664.01
210.082	566.64
210.891	580.99
211.7	588.16
212.508	579.96
213.317	557.41
214.125	526.66
214.934	571.76
215.742	586.11
216.55	567.66
217.359	530.76
218.167	565.61
218.975	666.06
219.782	560.49
220.59	542.04
221.398	524.61
222.206	716.27
223.013	591.24
223.82	532.81
224.628	556.39
225.435	585.09
226.242	635.31
227.049	625.06
227.856	554.34
228.663	625.06
229.47	584.06
230.277	600.46
231.083	578.94
231.89	566.64
232.696	611.74
233.502	579.96
234.309	556.39
235.115	632.24
235.921	607.64
236.727	531.78
237.533	657.86
238.339	641.46
239.144	615.84
239.95	725.49
240.756	610.71
241.561	611.74
242.366	560.49
243.172	617.89
243.977	681.43
244.782	616.86
245.587	632.24
246.392	646.58
247.197	530.76
248.001	532.81
248.806	578.94
249.611	569.71
250.415	623.01
251.219	593.29
252.024	614.81
252.828	566.64
253.632	578.94
254.436	545.11
255.24	644.53
256.044	665.03
256.848	578.94
257.651	550.24
258.455	600.46
259.258	607.64
260.062	49156.8
260.865	640.43
261.668	620.96
262.471	563.56
263.274	633.26
264.077	542.04
264.88	603.54
265.683	528.71
266.486	576.89
267.288	656.83
268.091	531.78
268.893	579.96
269.696	616.86
270.498	626.09
271.3	598.41
272.102	671.18
272.904	588.16
273.706	579.96
274.508	586.11
275.309	608.66
276.111	606.61
276.913	510.26
277.714	519.48
278.515	572.79
279.317	649.66
280.118	526.66
280.919	609.69
281.72	589.19
282.521	640.43
283.322	562.54
284.122	618.91
284.923	631.21
285.724	577.91
286.524	577.91
287.325	693.73
288.125	533.83
288.925	571.76
289.725	597.39
290.525	693.73
291.325	589.19
292.125	612.76
292.925	641.46
293.724	550.24
294.524	523.58
295.324	554.34
296.123	592.26
296.922	594.31
297.722	875.08
298.521	620.96
299.32	727.54
300.119	513.33
300.918	627.11
301.716	712.17
302.515	580.99
303.314	667.08
304.112	586.11
304.911	692.7
305.709	597.39
306.507	646.58
307.306	599.44
308.104	575.86
308.902	615.84
309.7	602.51
310.498	675.28
311.295	510.26
312.093	658.88
312.891	692.7
313.688	647.61
314.485	607.64
315.283	725.49
316.08	619.94
316.877	583.04
317.674	594.31
318.471	505.13
319.268	574.84
320.065	632.24
320.862	635.31
321.658	599.44
322.455	673.23
323.251	548.19
324.047	555.36
324.844	710.12
325.64	543.06
326.436	597.39
327.232	580.99
328.028	589.19
328.824	567.66
329.62	644.53
330.415	733.69
331.211	635.31
332.006	612.76
332.802	672.21
333.597	586.11
334.392	655.81
335.187	637.36
335.982	564.59
336.777	639.41
337.572	583.04
338.367	627.11
339.162	664.01
339.956	597.39
340.751	625.06
341.545	662.98
342.34	657.86
343.134	544.09
343.928	659.91
344.722	657.86
345.516	570.74
346.31	561.51
347.104	623.01
347.898	606.61
348.691	599.44
349.485	530.76
350.278	648.63
351.072	720.37
351.865	7209.93
352.658	620.96
353.452	690.65
354.245	584.06
355.038	646.58
355.83	596.36
356.623	577.91
357.416	577.91
358.209	592.26
359.001	561.51
359.794	613.79
360.586	650.68
361.378	668.11
362.17	582.01
362.963	543.06
363.755	696.8
364.546	539.98
365.338	615.84
366.13	638.38
366.922	606.61
367.713	596.36
368.505	586.11
369.296	585.09
370.088	485.65
370.879	559.46
371.67	599.44
372.461	549.21
373.252	599.44
374.043	678.35
374.834	481.55
375.625	636.33
376.415	658.88
377.206	611.74
377.996	591.24
378.787	699.87
379.577	535.88
380.367	500
381.157	625.06
381.947	571.76
382.737	621.99
383.527	632.24
384.317	703.97
385.107	602.51
385.896	664.01
386.686	626.09
387.475	646.58
388.265	583.04
389.054	848.45
389.843	591.24
390.632	616.86
391.421	640.43
392.21	684.5
392.999	560.49
393.788	625.06
394.576	649.66
395.365	646.58
396.154	613.79
396.942	592.26
397.73	637.36
398.519	634.29
399.307	650.68
400.095	637.36
400.883	727.54
401.671	644.53
402.459	658.88
403.246	586.11
404.034	623.01
404.822	633.26
405.609	697.83
406.396	738.81
407.184	578.94
407.971	688.6
408.758	686.55
409.545	521.53
410.332	690.65
411.119	685.53
411.906	584.06
412.693	675.28
413.479	708.07
414.266	637.36
415.052	695.78
415.839	664.01
416.625	648.63
417.411	724.47
418.197	753.16
418.983	789.02
419.769	730.62
420.555	665.03
421.341	693.73
422.127	696.8
422.912	669.13
423.698	762.38
424.483	668.11
425.269	654.78
426.054	612.76
426.839	726.52
427.624	652.73
428.409	672.21
429.194	711.15
429.979	745.99
430.764	753.16
431.549	719.35
432.333	712.17
433.118	635.31
433.902	761.36
434.687	696.8
435.471	747.01
436.255	750.09
437.039	742.91
437.823	753.16
438.607	741.89
439.391	766.48
440.175	767.51
440.958	738.81
441.742	761.36
442.526	697.83
443.309	786.97
444.092	864.84
444.876	782.87
445.659	784.92
446.442	869.96
447.225	857.67
448.008	892.5
448.791	866.89
449.573	980.58
450.356	920.15
451.139	901.72
451.921	815.66
452.704	875.08
453.486	818.73
454.268	885.33
455.05	872.01
455.833	854.59
456.615	896.59
457.396	881.23
458.178	918.1
458.96	799.27
459.742	877.13
460.523	859.71
461.305	858.69
462.086	925.28
462.868	1000.04
463.649	908.89
464.43	834.1
465.211	995.95
465.992	858.69
466.773	1048.18
467.554	935.52
468.335	964.2
469.115	940.64
469.896	832.05
470.676	761.36
471.457	916.06
472.237	915.03
473.018	911.96
473.798	872.01
474.578	889.42
475.358	823.86
476.138	758.28
476.918	762.38
477.697	785.95
478.477	898.64
479.257	835.13
480.036	789.02
480.816	761.36
481.595	844.35
482.374	800.29
483.153	860.74
483.932	789.02
484.711	777.75
485.49	773.65
486.269	723.44
487.048	668.11
487.827	783.9
488.605	714.22
489.384	687.58
490.162	765.46
490.941	808.49
491.719	711.15
492.497	723.44
493.275	697.83
494.053	731.64
494.831	661.96
495.609	699.87
496.387	733.69
497.164	724.47
497.942	707.05
498.72	660.93
499.497	672.21
500.274	585.09
501.052	648.63
501.829	689.63
502.606	623.01
503.383	649.66
504.16	683.48
504.937	667.08
505.714	574.84
506.49	693.73
507.267	563.56
508.043	645.56
508.82	708.07
509.596	563.56
510.373	590.21
511.149	553.31
511.925	579.96
512.701	612.76
513.477	691.68
514.253	601.49
515.029	598.41
515.804	594.31
516.58	695.78
517.356	591.24
518.131	711.15
518.906	559.46
519.682	609.69
520.457	573.81
521.232	633.26
522.007	619.94
522.782	558.44
523.557	534.86
524.332	534.86
525.107	670.16
525.881	559.46
526.656	510.26
527.43	538.96
528.205	575.86
528.979	544.09
529.753	579.96
530.527	646.58
531.302	557.41
532.076	609.69
532.849	574.84
533.623	589.19
534.397	550.24
535.171	599.44
535.944	648.63
536.718	510.26
537.491	716.27
538.265	489.75
539.038	611.74
539.811	605.59
540.584	580.99
541.357	573.81
542.13	690.65
542.903	705
543.676	587.14
544.449	617.89
545.221	619.94
545.994	585.09
546.766	611.74
547.539	559.46
548.311	630.19
549.083	613.79
549.855	450.79
550.627	652.73
551.399	596.36
552.171	696.8
552.943	625.06
553.715	552.29
554.486	593.29
555.258	548.19
556.029	543.06
556.801	631.21
557.572	533.83
558.343	563.56
559.114	645.56
559.886	639.41
560.657	586.11
561.427	505.13
562.198	541.01
562.969	605.59
563.74	592.26
564.51	572.79
565.281	697.83
566.051	573.81
566.822	562.54
567.592	598.41
568.362	560.49
569.132	584.06
569.902	747.01
570.672	521.53
571.442	617.89
572.212	615.84
572.982	590.21
573.751	628.14
574.521	594.31
575.29	703.97
576.06	636.33
576.829	599.44
577.598	575.86
578.367	527.68
579.136	561.51
579.905	637.36
580.674	670.16
581.443	635.31
582.212	583.04
582.981	654.78
583.749	554.34
584.518	589.19
585.286	674.25
586.054	729.59
586.823	629.16
587.591	566.64
588.359	647.61
589.127	620.96
589.895	691.68
590.663	696.8
591.431	633.26
592.198	659.91
592.966	676.3
593.734	703.97
594.501	617.89
595.268	631.21
596.036	731.64
596.803	624.04
597.57	656.83
598.337	669.13
599.104	674.25
599.871	789.02
600.638	816.69
601.405	874.06
602.171	797.22
602.938	1035.89
603.704	867.91
604.471	911.96
605.237	1112.69
606.004	1035.89
606.77	1143.41
607.536	1197.67
608.302	1225.31
609.068	1254.99
609.834	1237.59
610.599	1300.03
611.365	1215.07
612.131	1303.1
612.896	1403.39
613.662	1447.39
614.427	1409.53
615.193	1406.46
615.958	1440.23
616.723	1470.93
617.488	1351.2
618.253	1466.83
619.018	1460.69
619.783	1430
620.548	1553.79
621.312	1472.97
622.077	1446.37
622.842	1526.17
623.606	1637.67
624.37	1508.78
625.135	1551.75
625.899	1537.42
626.663	1469.9
627.427	1526.17
628.191	1513.9
628.955	1575.27
629.719	1460.69
630.483	1477.06
631.246	1361.44
632.01	1446.37
632.773	1532.31
633.537	1408.51
634.3	1422.83
635.063	1393.16
635.827	1338.92
636.59	1353.25
637.353	1434.09
638.116	1441.25
638.879	1292.86
639.641	1478.09
640.404	1388.04
641.167	1352.23
641.929	1402.37
642.692	1277.51
643.454	1289.79
644.216	1367.58
644.979	1365.53
645.741	1345.06
646.503	1399.3
647.265	1367.58
648.027	1410.56
648.789	1250.9
649.551	1318.45
650.312	1293.89
651.074	1246.8
651.835	1234.52
652.597	1256.02
653.358	1305.15
654.12	1254.99
654.881	1243.73
655.642	1242.71
656.403	1215.07
657.164	1267.28
657.925	1233.5
658.686	1300.03
659.447	1143.41
660.207	1181.29
660.968	1253.97
661.728	1316.4
662.489	1249.87
663.249	1238.61
664.01	1224.28
664.77	1293.89
665.53	1302.08
666.29	1187.43
667.05	1308.22
667.81	1219.16
668.57	1230.42
669.329	1235.54
670.089	1232.47
670.849	1256.02
671.608	1273.42
672.368	1191.52
673.127	1303.1
673.886	1237.59
674.646	1191.52
675.405	1250.9
676.164	1285.7
676.923	1265.23
677.682	1348.13
678.44	1235.54
679.199	1172.07
679.958	1435.11
680.717	1237.59
681.475	1180.26
682.233	1223.26
682.992	1164.91
683.75	1226.33
684.508	1247.83
685.266	1157.74
686.024	1245.78
686.782	1165.93
687.54	1238.61
688.298	1180.26
689.056	1241.68
689.814	1088.11
690.571	1190.5
691.329	1127.02
692.086	1095.28
692.843	1079.92
693.601	1138.29
694.358	1156.71
695.115	1024.62
695.872	1038.96
696.629	992.88
697.386	1124.98
698.143	1128.05
698.9	994.92
699.656	1002.09
700.413	1017.45
701.169	1073.78
701.926	1021.55
702.682	1035.89
703.438	1001.07
704.195	1113.71
704.951	943.71
705.707	951.91
706.463	949.86
707.219	985.71
707.974	942.69
708.73	902.74
709.486	958.05
710.241	1005.16
710.997	968.29
711.752	1011.31
712.508	985.71
713.263	948.83
714.018	967.27
714.773	959.08
715.528	1075.83
716.283	990.83
717.038	885.33
717.793	926.3
718.548	903.76
719.303	910.93
720.057	854.59
720.812	847.42
721.566	775.7
722.321	834.1
723.075	819.76
723.829	870.98
724.583	796.19
725.337	815.66
726.091	899.67
726.845	821.81
727.599	733.69
728.353	852.54
729.106	759.31
729.86	896.59
730.614	732.67
731.367	6332.04
732.12	817.71
732.874	762.38
733.627	823.86
734.38	824.88
735.133	815.66
735.886	748.04
736.639	754.19
737.392	804.39
738.145	723.44
738.897	848.45
739.65	768.53
740.403	778.78
741.155	791.07
741.907	770.58
742.66	836.15
743.412	634.29
744.164	765.46
744.916	595.34
745.668	671.18
746.42	748.04
747.172	644.53
747.924	618.91
748.676	531.78
749.427	576.89
750.179	635.31
750.93	661.96
751.682	532.81
752.433	650.68
753.184	688.6
753.935	573.81
754.687	542.04
755.438	635.31
756.189	599.44
756.939	573.81
757.69	551.26
758.441	649.66
759.192	599.44
759.942	664.01
760.693	648.63
761.443	629.16
762.194	559.46
762.944	544.09
763.694	651.71
764.444	574.84
765.194	652.73
765.944	630.19
766.694	641.46
767.444	688.6
768.194	656.83
768.943	561.51
769.693	658.88
770.443	619.94
771.192	655.81
771.941	500
772.691	648.63
773.44	598.41
774.189	653.76
774.938	611.74
775.687	588.16
776.436	613.79
777.185	646.58
777.934	562.54
778.683	604.56
779.431	602.51
780.18	653.76
780.928	593.29
781.677	615.84
782.425	631.21
783.173	652.73
783.922	647.61
784.67	720.37
785.418	674.25
786.166	709.1
786.914	568.69
787.661	623.01
788.409	613.79
789.157	603.54
789.904	585.09
790.652	666.06
791.399	648.63
792.147	633.26
792.894	658.88
793.641	623.01
794.388	5315.68
795.136	656.83
795.883	565.61
796.629	669.13
797.376	536.91
798.123	566.64
798.87	526.66
799.616	575.86
800.363	708.07
801.109	711.15
801.856	658.88
802.602	486.68
803.349	693.73
804.095	739.84
804.841	612.76
805.587	638.38
806.333	637.36
807.079	662.98
807.825	636.33
808.57	619.94
809.316	719.35
810.062	632.24
810.807	667.08
811.553	739.84
812.298	692.7
813.043	642.48
813.788	706.02
814.534	611.74
815.279	702.95
816.024	655.81
816.769	643.51
817.514	668.11
818.258	640.43
819.003	717.3
819.748	15615.47
820.492	626.09
821.237	4708.67
821.981	594.31
822.726	701.92
823.47	717.3
824.214	700.9
824.958	656.83
825.702	657.86
826.446	675.28
827.19	670.16
827.934	729.59
828.678	650.68
829.421	728.57
830.165	651.71
830.909	633.26
831.652	631.21
832.395	684.5
833.139	699.87
833.882	791.07
834.625	652.73
835.368	641.46
836.111	566.64
836.854	613.79
837.597	657.86
838.34	682.45
839.083	666.06
839.825	693.73
840.568	556.39
841.311	628.14
842.053	700.9
842.795	562.54
843.538	624.04
844.28	564.59
845.022	551.26
845.764	754.19
846.506	531.78
847.248	587.14
847.99	647.61
848.732	645.56
849.474	592.26
850.215	534.86
850.957	497.95
851.698	577.91
852.44	651.71
853.181	590.21
853.922	698.85
854.664	587.14
855.405	701.92
856.146	532.81
856.887	597.39
857.628	692.7
858.369	522.56
859.109	701.92
859.85	587.14
860.591	662.98
861.331	564.59
862.072	516.41
862.812	492.83
863.553	539.98
864.293	681.43
865.033	584.06
865.773	644.53
866.513	541.01
867.253	552.29
867.993	578.94
868.733	600.46
869.473	637.36
870.213	681.43
870.952	533.83
871.692	599.44
872.431	549.21
873.171	582.01
873.91	570.74
874.649	516.41
875.388	606.61
876.128	598.41
876.867	523.58
877.606	603.54
878.345	580.99
879.083	560.49
879.822	548.19
880.561	608.66
881.299	585.09
882.038	573.81
882.777	656.83
883.515	696.8
884.253	7901.72
884.992	617.89
885.73	593.29
886.468	599.44
887.206	720.37
887.944	648.63
888.682	652.73
889.42	605.59
890.157	618.91
890.895	569.71
891.633	1280.58
892.37	598.41
893.108	641.46
893.845	603.54
894.583	605.59
895.32	527.68
896.057	542.04
896.794	604.56
897.531	649.66
898.268	570.74
899.005	559.46
899.742	592.26
900.479	576.89
901.215	596.36
901.952	560.49
902.689	528.71
903.425	503.08
904.162	525.63
904.898	617.89
905.634	687.58
906.37	609.69
907.106	514.36
907.843	632.24
908.579	586.11
909.314	456.95
910.05	584.06
910.786	575.86
911.522	517.43
912.257	648.63
912.993	599.44
913.728	563.56
914.464	587.14
915.199	558.44
915.935	521.53
916.67	559.46
917.405	621.99
918.14	624.04
918.875	612.76
919.61	669.13
920.345	677.33
921.08	707.05
921.814	595.34
922.549	562.54
923.284	815.66
924.018	567.66
924.752	667.08
925.487	632.24
926.221	628.14
926.955	607.64
927.69	529.73
928.424	599.44
929.158	632.24
929.892	565.61
930.625	617.89
931.359	709.1
932.093	638.38
932.827	566.64
933.56	586.11
934.294	517.43
935.027	617.89
935.761	657.86
936.494	575.86
937.227	561.51
937.96	638.38
938.693	645.56
939.426	546.14
940.159	662.98
940.892	607.64
941.625	685.53
942.358	672.21
943.091	594.31
943.823	537.93
944.556	524.61
945.288	579.96
946.021	616.86
946.753	570.74
947.485	637.36
948.217	600.46
948.95	614.81
949.682	521.53
950.414	554.34
951.146	593.29
951.877	566.64
952.609	591.24
953.341	613.79
954.073	699.87
954.804	612.76
955.536	574.84
956.267	630.19
956.998	546.14
957.73	554.34
958.461	557.41
959.192	528.71
959.923	662.98
960.654	605.59
961.385	561.51
962.116	598.41
962.847	572.79
963.578	593.29
964.308	578.94
965.039	513.33
965.769	606.61
966.5	629.16
967.23	568.69
967.961	604.56
968.691	652.73
969.421	512.31
970.151	651.71
970.881	525.63
971.611	666.06
972.341	606.61
973.071	675.28
973.801	678.35
974.53	568.69
975.26	577.91
975.99	602.51
976.719	665.03
977.448	573.81
978.178	575.86
978.907	616.86
979.636	538.96
980.365	650.68
981.095	696.8
981.824	638.38
982.553	595.34
983.281	562.54
984.01	1.54
984.739	-26.17
985.468	-43.61
986.196	-78.5
986.925	826.93
987.653	588.16
988.382	692.7
989.11	626.09
989.838	633.26
990.566	727.54
991.295	570.74
992.023	694.75
992.751	687.58
993.478	583.04
994.206	649.66
994.934	599.44
995.662	-10.77
996.389	-48.74
997.117	121.58
997.845	84.65
