Data from SampleKW32_Bg_QEPB07591_00010.txt Node
Date: Thu Aug 22 15:29:26 EDT 2019
User: wcc
Spectrometer: QEPB0759
Trigger mode: 0
Integration Time (sec): 1.749000E0
Scans to average: 1
Electric dark correction enabled: true
Nonlinearity correction enabled: true
Boxcar width: 0
XAxis mode: Wavelengths
Number of Pixels in Spectrum: 1044
>>>>>Begin Spectral Data<<<<<
197.938	633.77
198.749	604.05
199.559	567.15
200.369	562.02
201.179	597.9
201.988	595.85
202.798	698.34
203.608	570.22
204.417	586.62
205.227	552.8
206.036	627.62
206.846	618.4
207.655	664.52
208.464	625.57
209.273	655.3
210.082	571.25
210.891	582.52
211.7	577.4
212.508	575.35
213.317	553.82
214.125	518.97
214.934	567.15
215.742	573.3
216.55	554.85
217.359	530.25
218.167	551.77
218.975	656.32
219.782	553.82
220.59	542.55
221.398	534.35
222.206	721.91
223.013	591.75
223.82	533.32
224.628	559.97
225.435	580.47
226.242	640.95
227.049	628.65
227.856	548.7
228.663	618.4
229.47	586.62
230.277	595.85
231.083	577.4
231.89	564.07
232.696	619.42
233.502	575.35
234.309	553.82
235.115	621.47
235.921	580.47
236.727	526.15
237.533	653.25
238.339	626.6
239.144	603.02
239.95	732.15
240.756	620.45
241.561	616.35
242.366	558.95
243.172	623.52
243.977	672.72
244.782	629.67
245.587	620.45
246.392	639.92
247.197	529.22
248.001	539.47
248.806	572.27
249.611	552.8
250.415	621.47
251.219	588.67
252.024	598.92
252.828	566.12
253.632	563.05
254.436	551.77
255.24	646.07
256.044	650.17
256.848	573.3
257.651	542.55
258.455	596.87
259.258	614.3
260.062	50835.64
260.865	643
261.668	616.35
262.471	553.82
263.274	629.67
264.077	536.4
264.88	603.02
265.683	524.1
266.486	582.52
267.288	667.59
268.091	521.02
268.893	586.62
269.696	619.42
270.498	595.85
271.3	606.1
272.102	671.69
272.904	597.9
273.706	604.05
274.508	594.82
275.309	612.25
276.111	597.9
276.913	524.1
277.714	504.62
278.515	542.55
279.317	641.97
280.118	537.42
280.919	615.32
281.72	572.27
282.521	628.65
283.322	552.8
284.122	618.4
284.923	625.57
285.724	590.72
286.524	586.62
287.325	710.63
288.125	530.25
288.925	588.67
289.725	599.95
290.525	690.14
291.325	588.67
292.125	622.5
292.925	640.95
293.724	526.15
294.524	511.79
295.324	547.67
296.123	603.02
296.922	596.87
297.722	865.35
298.521	604.05
299.32	708.59
300.119	523.07
300.918	618.4
301.716	724.98
302.515	583.55
303.314	676.82
304.112	580.47
304.911	696.29
305.709	589.7
306.507	647.1
307.306	602
308.104	579.45
308.902	606.1
309.7	596.87
310.498	670.67
311.295	504.62
312.093	651.2
312.891	685.02
313.688	647.1
314.485	605.07
315.283	723.96
316.08	619.42
316.877	587.65
317.674	591.75
318.471	494.37
319.268	557.92
320.065	614.3
320.862	630.7
321.658	592.77
322.455	659.39
323.251	552.8
324.047	547.67
324.844	692.19
325.64	530.25
326.436	593.8
327.232	581.5
328.028	592.77
328.824	539.47
329.62	648.12
330.415	716.78
331.211	608.15
332.006	598.92
332.802	680.92
333.597	597.9
334.392	649.15
335.187	621.47
335.982	558.95
336.777	637.87
337.572	585.6
338.367	625.57
339.162	665.54
339.956	588.67
340.751	618.4
341.545	654.27
342.34	651.2
343.134	550.75
343.928	667.59
344.722	670.67
345.516	565.1
346.31	547.67
347.104	614.3
347.898	603.02
348.691	591.75
349.485	504.62
350.278	620.45
351.072	710.63
351.865	7238.73
352.658	630.7
353.452	706.54
354.245	581.5
355.038	646.07
355.83	597.9
356.623	577.4
357.416	567.15
358.209	587.65
359.001	573.3
359.794	618.4
360.586	634.8
361.378	654.27
362.17	577.4
362.963	544.6
363.755	704.49
364.546	517.94
365.338	628.65
366.13	641.97
366.922	615.32
367.713	576.37
368.505	597.9
369.296	580.47
370.088	480.01
370.879	551.77
371.67	591.75
372.461	548.7
373.252	588.67
374.043	682.97
374.834	488.21
375.625	622.5
376.415	662.47
377.206	615.32
377.996	571.25
378.787	701.41
379.577	526.15
380.367	498.47
381.157	621.47
381.947	574.32
382.737	619.42
383.527	624.55
384.317	688.09
385.107	580.47
385.896	656.32
386.686	622.5
387.475	641.97
388.265	576.37
389.054	833.59
389.843	574.32
390.632	591.75
391.421	598.92
392.21	666.57
392.999	548.7
393.788	610.2
394.576	632.75
395.365	612.25
396.154	590.72
396.942	573.3
397.73	600.97
398.519	617.37
399.307	630.7
400.095	596.87
400.883	703.46
401.671	590.72
402.459	617.37
403.246	550.75
404.034	593.8
404.822	570.22
405.609	659.39
406.396	685.02
407.184	525.12
407.971	628.65
408.758	630.7
409.545	471.81
410.332	647.1
411.119	658.37
411.906	540.5
412.693	637.87
413.479	637.87
414.266	562.02
415.052	620.45
415.839	591.75
416.625	579.45
417.411	649.15
418.197	682.97
418.983	690.14
419.769	650.17
420.555	585.6
421.341	599.95
422.127	597.9
422.912	590.72
423.698	659.39
424.483	583.55
425.269	559.97
426.054	516.92
426.839	616.35
427.624	559.97
428.409	590.72
429.194	589.7
429.979	636.85
430.764	625.57
431.549	597.9
432.333	586.62
433.118	491.29
433.902	618.4
434.687	574.32
435.471	611.22
436.255	618.4
437.039	572.27
437.823	605.07
438.607	588.67
439.391	613.27
440.175	613.27
440.958	580.47
441.742	593.8
442.526	532.3
443.309	600.97
444.092	681.94
444.876	604.05
445.659	588.67
446.442	676.82
447.225	653.25
448.008	682.97
448.791	637.87
449.573	739.33
450.356	673.74
451.139	649.15
451.921	551.77
452.704	633.77
453.486	599.95
454.268	645.05
455.05	620.45
455.833	582.52
456.615	622.5
457.396	586.62
458.178	620.45
458.96	537.42
459.742	594.82
460.523	569.2
461.305	561
462.086	639.92
462.868	716.78
463.649	611.22
464.43	568.17
465.211	701.41
465.992	542.55
466.773	706.54
467.554	604.05
468.335	627.62
469.115	610.2
469.896	522.05
470.676	483.09
471.457	620.45
472.237	610.2
473.018	614.3
473.798	599.95
474.578	632.75
475.358	585.6
476.138	515.89
476.918	528.2
477.697	568.17
478.477	667.59
479.257	610.2
480.036	554.85
480.816	520
481.595	607.12
482.374	585.6
483.153	670.67
483.932	606.1
484.711	586.62
485.49	603.02
486.269	552.8
487.048	497.44
487.827	636.85
488.605	574.32
489.384	551.77
490.162	619.42
490.941	679.89
491.719	556.9
492.497	571.25
493.275	582.52
494.053	616.35
494.831	544.6
495.609	614.3
496.387	616.35
497.164	629.67
497.942	600.97
498.72	570.22
499.497	606.1
500.274	504.62
501.052	573.3
501.829	620.45
502.606	544.6
503.383	596.87
504.16	621.47
504.937	624.55
505.714	527.17
506.49	663.49
507.267	513.84
508.043	614.3
508.82	678.87
509.596	546.65
510.373	557.92
511.149	533.32
511.925	574.32
512.701	612.25
513.477	674.77
514.253	583.55
515.029	579.45
515.804	581.5
516.58	679.89
517.356	590.72
518.131	700.39
518.906	547.67
519.682	600.97
520.457	586.62
521.232	613.27
522.007	613.27
522.782	540.5
523.557	528.2
524.332	532.3
525.107	678.87
525.881	558.95
526.656	518.97
527.43	548.7
528.205	565.1
528.979	533.32
529.753	559.97
530.527	654.27
531.302	544.6
532.076	597.9
532.849	570.22
533.623	587.65
534.397	536.4
535.171	593.8
535.944	640.95
536.718	530.25
537.491	721.91
538.265	496.42
539.038	628.65
539.811	616.35
540.584	589.7
541.357	572.27
542.13	682.97
542.903	700.39
543.676	593.8
544.449	593.8
545.221	631.72
545.994	574.32
546.766	611.22
547.539	564.07
548.311	626.6
549.083	584.57
549.855	462.58
550.627	650.17
551.399	588.67
552.171	695.26
552.943	629.67
553.715	554.85
554.486	578.42
555.258	542.55
556.029	536.4
556.801	625.57
557.572	527.17
558.343	550.75
559.114	644.02
559.886	633.77
560.657	586.62
561.427	500.52
562.198	556.9
562.969	606.1
563.74	585.6
564.51	554.85
565.281	680.92
566.051	570.22
566.822	555.87
567.592	590.72
568.362	572.27
569.132	568.17
569.902	743.43
570.672	528.2
571.442	622.5
572.212	635.82
572.982	591.75
573.751	618.4
574.521	595.85
575.29	723.96
576.06	626.6
576.829	591.75
577.598	565.1
578.367	542.55
579.136	543.57
579.905	599.95
580.674	663.49
581.443	626.6
582.212	561
582.981	638.9
583.749	567.15
584.518	584.57
585.286	683.99
586.054	731.13
586.823	621.47
587.591	555.87
588.359	661.44
589.127	612.25
589.895	678.87
590.663	676.82
591.431	628.65
592.198	634.8
592.966	641.97
593.734	690.14
594.501	589.7
595.268	621.47
596.036	694.24
596.803	561
597.57	571.25
598.337	575.35
599.104	564.07
599.871	632.75
600.638	647.1
601.405	656.32
602.171	565.1
602.938	755.72
603.704	532.3
604.471	556.9
605.237	695.26
606.004	585.6
606.77	656.32
607.536	673.74
608.302	662.47
609.068	653.25
609.834	617.37
610.599	652.22
611.365	554.85
612.131	598.92
612.896	644.02
613.662	697.31
614.427	632.75
615.193	604.05
615.958	613.27
616.723	632.75
617.488	508.72
618.253	611.22
619.018	602
619.783	559.97
620.548	670.67
621.312	594.82
622.077	540.5
622.842	630.7
623.606	751.62
624.37	600.97
625.135	654.27
625.899	635.82
626.663	568.17
627.427	650.17
628.191	620.45
628.955	700.39
629.719	585.6
630.483	610.2
631.246	521.02
632.01	571.25
632.773	681.94
633.537	550.75
634.3	613.27
635.063	556.9
635.827	505.64
636.59	574.32
637.353	637.87
638.116	645.05
638.879	534.35
639.641	711.66
640.404	631.72
641.167	594.82
641.929	643
642.692	547.67
643.454	565.1
644.216	650.17
644.979	655.3
645.741	628.65
646.503	686.04
647.265	654.27
648.027	704.49
648.789	551.77
649.551	598.92
650.312	592.77
651.074	588.67
651.835	573.3
652.597	618.4
653.358	645.05
654.12	609.17
654.881	587.65
655.642	610.2
656.403	562.02
657.164	650.17
657.925	614.3
658.686	654.27
659.447	547.67
660.207	553.82
660.968	628.65
661.728	683.99
662.489	616.35
663.249	620.45
664.01	576.37
664.77	663.49
665.53	665.54
666.29	552.8
667.05	657.34
667.81	578.42
668.57	557.92
669.329	571.25
670.089	578.42
670.849	615.32
671.608	638.9
672.368	526.15
673.127	641.97
673.886	564.07
674.646	527.17
675.405	616.35
676.164	640.95
676.923	629.67
677.682	713.71
678.44	610.2
679.199	545.62
679.958	809
680.717	627.62
681.475	555.87
682.233	564.07
682.992	503.59
683.75	584.57
684.508	625.57
685.266	524.1
686.024	650.17
686.782	577.4
687.54	648.12
688.298	636.85
689.056	681.94
689.814	529.22
690.571	631.72
691.329	606.1
692.086	578.42
692.843	553.82
693.601	632.75
694.358	653.25
695.115	543.57
695.872	557.92
696.629	524.1
697.386	674.77
698.143	677.84
698.9	543.57
699.656	549.72
700.413	590.72
701.169	648.12
701.926	575.35
702.682	602
703.438	569.2
704.195	708.59
704.951	533.32
705.707	536.4
706.463	525.12
707.219	563.05
707.974	541.52
708.73	493.34
709.486	562.02
710.241	586.62
710.997	563.05
711.752	603.02
712.508	595.85
713.263	581.5
714.018	596.87
714.773	594.82
715.528	731.13
716.283	640.95
717.038	546.65
717.793	626.6
718.548	586.62
719.303	616.35
720.057	573.3
720.812	564.07
721.566	510.77
722.321	588.67
723.075	570.22
723.829	640.95
724.583	578.42
725.337	588.67
726.091	685.02
726.845	618.4
727.599	522.05
728.353	604.05
729.106	548.7
729.86	694.24
730.614	521.02
731.367	6053.08
732.12	596.87
732.874	548.7
733.627	607.12
734.38	629.67
735.133	614.3
735.886	569.2
736.639	568.17
737.392	624.55
738.145	550.75
738.897	655.3
739.65	607.12
740.403	620.45
741.155	615.32
741.907	631.72
742.66	703.46
743.412	517.94
744.164	631.72
744.916	518.97
745.668	600.97
746.42	687.07
747.172	598.92
747.924	604.05
748.676	526.15
749.427	574.32
750.179	634.8
750.93	661.44
751.682	532.3
752.433	644.02
753.184	704.49
753.935	566.12
754.687	524.1
755.438	636.85
756.189	595.85
756.939	562.02
757.69	550.75
758.441	653.25
759.192	593.8
759.942	653.25
760.693	653.25
761.443	626.6
762.194	559.97
762.944	535.37
763.694	650.17
764.444	567.15
765.194	639.92
765.944	615.32
766.694	653.25
767.444	679.89
768.194	639.92
768.943	553.82
769.693	661.44
770.443	618.4
771.192	645.05
771.941	476.94
772.691	641.97
773.44	589.7
774.189	655.3
774.938	602
775.687	578.42
776.436	621.47
777.185	638.9
777.934	553.82
778.683	604.05
779.431	594.82
780.18	662.47
780.928	595.85
781.677	590.72
782.425	624.55
783.173	660.42
783.922	627.62
784.67	718.83
785.418	672.72
786.166	696.29
786.914	551.77
787.661	617.37
788.409	597.9
789.157	593.8
789.904	590.72
790.652	674.77
791.399	628.65
792.147	628.65
792.894	659.39
793.641	607.12
794.388	5309.08
795.136	639.92
795.883	574.32
796.629	670.67
797.376	529.22
798.123	556.9
798.87	522.05
799.616	556.9
800.363	699.36
801.109	708.59
801.856	653.25
802.602	490.27
803.349	698.34
804.095	731.13
804.841	599.95
805.587	624.55
806.333	640.95
807.079	660.42
807.825	633.77
808.57	616.35
809.316	714.73
810.062	622.5
810.807	660.42
811.553	730.1
812.298	677.84
813.043	645.05
813.788	683.99
814.534	628.65
815.279	708.59
816.024	650.17
816.769	628.65
817.514	665.54
818.258	630.7
819.003	709.61
819.748	15531.03
820.492	622.5
821.237	4700.04
821.981	596.87
822.726	709.61
823.47	710.63
824.214	715.76
824.958	645.05
825.702	654.27
826.446	663.49
827.19	659.39
827.934	722.93
828.678	649.15
829.421	744.45
830.165	663.49
830.909	630.7
831.652	624.55
832.395	694.24
833.139	694.24
833.882	793.63
834.625	634.8
835.368	623.52
836.111	574.32
836.854	622.5
837.597	654.27
838.34	686.04
839.083	660.42
839.825	708.59
840.568	554.85
841.311	643
842.053	709.61
842.795	569.2
843.538	624.55
844.28	563.05
845.022	547.67
845.764	760.85
846.506	535.37
847.248	597.9
847.99	636.85
848.732	645.05
849.474	591.75
850.215	529.22
850.957	512.82
851.698	567.15
852.44	650.17
853.181	584.57
853.922	697.31
854.664	607.12
855.405	701.41
856.146	524.1
856.887	587.65
857.628	698.34
858.369	526.15
859.109	679.89
859.85	586.62
860.591	675.79
861.331	548.7
862.072	503.59
862.812	492.32
863.553	561
864.293	677.84
865.033	591.75
865.773	616.35
866.513	529.22
867.253	539.47
867.993	571.25
868.733	602
869.473	631.72
870.213	686.04
870.952	533.32
871.692	608.15
872.431	547.67
873.171	597.9
873.91	566.12
874.649	487.19
875.388	611.22
876.128	587.65
876.867	527.17
877.606	597.9
878.345	574.32
879.083	552.8
879.822	532.3
880.561	605.07
881.299	576.37
882.038	583.55
882.777	651.2
883.515	688.09
884.253	7900.21
884.992	613.27
885.73	591.75
886.468	584.57
887.206	728.06
887.944	624.55
888.682	646.07
889.42	612.25
890.157	621.47
890.895	550.75
891.633	1298.49
892.37	590.72
893.108	644.02
893.845	618.4
894.583	604.05
895.32	518.97
896.057	521.02
896.794	606.1
897.531	658.37
898.268	571.25
899.005	561
899.742	597.9
900.479	569.2
901.215	598.92
901.952	578.42
902.689	530.25
903.425	507.69
904.162	528.2
904.898	619.42
905.634	675.79
906.37	605.07
907.106	524.1
907.843	623.52
908.579	580.47
909.314	462.58
910.05	567.15
910.786	575.35
911.522	521.02
912.257	630.7
912.993	595.85
913.728	557.92
914.464	568.17
915.199	553.82
915.935	511.79
916.67	548.7
917.405	621.47
918.14	622.5
918.875	605.07
919.61	666.57
920.345	671.69
921.08	702.44
921.814	595.85
922.549	544.6
923.284	817.2
924.018	556.9
924.752	679.89
925.487	628.65
926.221	626.6
926.955	586.62
927.69	532.3
928.424	592.77
929.158	624.55
929.892	559.97
930.625	627.62
931.359	708.59
932.093	632.75
932.827	559.97
933.56	567.15
934.294	512.82
935.027	599.95
935.761	650.17
936.494	576.37
937.227	539.47
937.96	632.75
938.693	633.77
939.426	551.77
940.159	655.3
940.892	604.05
941.625	701.41
942.358	656.32
943.091	578.42
943.823	534.35
944.556	511.79
945.288	573.3
946.021	613.27
946.753	554.85
947.485	643
948.217	593.8
948.95	619.42
949.682	516.92
950.414	546.65
951.146	597.9
951.877	578.42
952.609	593.8
953.341	608.15
954.073	688.09
954.804	614.3
955.536	580.47
956.267	638.9
956.998	544.6
957.73	561
958.461	541.52
959.192	532.3
959.923	661.44
960.654	602
961.385	563.05
962.116	596.87
962.847	572.27
963.578	583.55
964.308	583.55
965.039	509.74
965.769	600.97
966.5	615.32
967.23	567.15
967.961	591.75
968.691	653.25
969.421	514.87
970.151	652.22
970.881	517.94
971.611	675.79
972.341	595.85
973.071	647.1
973.801	662.47
974.53	572.27
975.26	570.22
975.99	595.85
976.719	649.15
977.448	571.25
978.178	589.7
978.907	618.4
979.636	525.12
980.365	640.95
981.095	679.89
981.824	635.82
982.553	589.7
983.281	558.95
984.01	7.18
984.739	-29.76
985.468	-45.15
986.196	-83.12
986.925	830.52
987.653	593.8
988.382	690.14
989.11	632.75
989.838	658.37
990.566	723.96
991.295	572.27
992.023	678.87
992.751	689.11
993.478	584.57
994.206	629.67
994.934	598.92
995.662	-17.44
996.389	-50.28
997.117	131.33
997.845	87.21
