Data from SampleKW32_Bg_QEPB07591_00001.txt Node
Date: Thu Aug 22 15:29:10 EDT 2019
User: wcc
Spectrometer: QEPB0759
Trigger mode: 0
Integration Time (sec): 1.749000E0
Scans to average: 1
Electric dark correction enabled: true
Nonlinearity correction enabled: true
Boxcar width: 0
XAxis mode: Wavelengths
Number of Pixels in Spectrum: 1044
>>>>>Begin Spectral Data<<<<<
197.938	648.51
198.749	609.56
199.559	568.56
200.369	562.41
201.179	592.13
201.988	583.93
202.798	703.85
203.608	580.86
204.417	583.93
205.227	549.08
206.036	613.66
206.846	630.06
207.655	661.83
208.464	626.98
209.273	657.73
210.082	563.43
210.891	568.56
211.7	581.88
212.508	566.51
213.317	560.36
214.125	527.56
214.934	571.63
215.742	568.56
216.55	555.23
217.359	527.56
218.167	562.41
218.975	652.6
219.782	544.98
220.59	533.71
221.398	516.28
222.206	714.09
223.013	600.33
223.82	530.63
224.628	544.98
225.435	582.91
226.242	633.13
227.049	632.11
227.856	556.26
228.663	604.43
229.47	583.93
230.277	590.08
231.083	572.66
231.89	549.08
232.696	623.91
233.502	564.46
234.309	559.33
235.115	623.91
235.921	613.66
236.727	519.35
237.533	647.48
238.339	636.21
239.144	607.51
239.95	737.66
240.756	606.48
241.561	609.56
242.366	558.31
243.172	614.68
243.977	670.03
244.782	629.03
245.587	629.03
246.392	644.41
247.197	531.66
248.001	547.03
248.806	572.66
249.611	557.28
250.415	611.61
251.219	590.08
252.024	610.58
252.828	554.21
253.632	584.96
254.436	547.03
255.24	655.68
256.044	649.53
256.848	566.51
257.651	546.01
258.455	602.38
259.258	596.23
260.062	50630.27
260.865	647.48
261.668	615.71
262.471	560.36
263.274	628.01
264.077	543.96
264.88	598.28
265.683	546.01
266.486	587.01
267.288	662.85
268.091	526.53
268.893	575.73
269.696	607.51
270.498	602.38
271.3	599.31
272.102	683.35
272.904	592.13
273.706	600.33
274.508	588.03
275.309	611.61
276.111	588.03
276.913	534.73
277.714	510.13
278.515	555.23
279.317	661.83
280.118	525.51
280.919	613.66
281.72	563.43
282.521	624.93
283.322	559.33
284.122	611.61
284.923	620.83
285.724	578.81
286.524	580.86
287.325	693.6
288.125	536.78
288.925	568.56
289.725	597.26
290.525	672.08
291.325	593.16
292.125	603.41
292.925	639.28
293.724	532.68
294.524	499.88
295.324	530.63
296.123	593.16
296.922	583.93
297.722	877
298.521	595.21
299.32	694.62
300.119	513.2
300.918	607.51
301.716	712.04
302.515	577.78
303.314	665.93
304.112	579.83
304.911	691.55
305.709	572.66
306.507	640.31
307.306	596.23
308.104	585.98
308.902	605.46
309.7	605.46
310.498	651.58
311.295	500.9
312.093	636.21
312.891	681.3
313.688	628.01
314.485	583.93
315.283	728.44
316.08	632.11
316.877	589.06
317.674	589.06
318.471	490.65
319.268	566.51
320.065	611.61
320.862	630.06
321.658	575.73
322.455	637.23
323.251	553.18
324.047	547.03
324.844	691.55
325.64	536.78
326.436	603.41
327.232	585.98
328.028	589.06
328.824	541.91
329.62	642.36
330.415	725.37
331.211	614.68
332.006	599.31
332.802	662.85
333.597	589.06
334.392	656.7
335.187	643.38
335.982	563.43
336.777	637.23
337.572	570.61
338.367	630.06
339.162	663.88
339.956	596.23
340.751	606.48
341.545	647.48
342.34	652.6
343.134	544.98
343.928	661.83
344.722	657.73
345.516	562.41
346.31	566.51
347.104	590.08
347.898	613.66
348.691	597.26
349.485	515.25
350.278	635.18
351.072	699.75
351.865	7207.79
352.658	618.78
353.452	702.82
354.245	577.78
355.038	646.46
355.83	583.93
356.623	581.88
357.416	577.78
358.209	601.36
359.001	556.26
359.794	612.63
360.586	634.16
361.378	652.6
362.17	577.78
362.963	547.03
363.755	687.45
364.546	516.28
365.338	630.06
366.13	640.31
366.922	603.41
367.713	577.78
368.505	598.28
369.296	572.66
370.088	493.73
370.879	547.03
371.67	608.53
372.461	548.06
373.252	588.03
374.043	680.28
374.834	484.5
375.625	621.86
376.415	665.93
377.206	617.76
377.996	571.63
378.787	715.12
379.577	505
380.367	495.78
381.157	621.86
381.947	559.33
382.737	620.83
383.527	623.91
384.317	693.6
385.107	594.18
385.896	657.73
386.686	613.66
387.475	638.26
388.265	571.63
389.054	837.05
389.843	590.08
390.632	599.31
391.421	626.98
392.21	664.9
392.999	543.96
393.788	612.63
394.576	633.13
395.365	612.63
396.154	584.96
396.942	555.23
397.73	609.56
398.519	596.23
399.307	622.88
400.095	597.26
400.883	689.5
401.671	600.33
402.459	620.83
403.246	550.11
404.034	591.11
404.822	565.48
405.609	654.65
406.396	682.33
407.184	531.66
407.971	632.11
408.758	644.41
409.545	466.04
410.332	638.26
411.119	652.6
411.906	529.61
412.693	602.38
413.479	638.26
414.266	566.51
415.052	629.03
415.839	589.06
416.625	567.53
417.411	653.63
418.197	682.33
418.983	695.65
419.769	653.63
420.555	584.96
421.341	591.11
422.127	603.41
422.912	583.93
423.698	657.73
424.483	573.68
425.269	552.16
426.054	516.28
426.839	626.98
427.624	551.13
428.409	578.81
429.194	577.78
429.979	620.83
430.764	623.91
431.549	610.58
432.333	590.08
433.118	505
433.902	613.66
434.687	568.56
435.471	606.48
436.255	606.48
437.039	577.78
437.823	604.43
438.607	590.08
439.391	616.73
440.175	600.33
440.958	578.81
441.742	595.21
442.526	517.3
443.309	600.33
444.092	692.57
444.876	598.28
445.659	585.98
446.442	679.25
447.225	651.58
448.008	682.33
448.791	650.56
449.573	737.66
450.356	676.18
451.139	644.41
451.921	566.51
452.704	628.01
453.486	592.13
454.268	639.28
455.05	603.41
455.833	576.76
456.615	630.06
457.396	607.51
458.178	638.26
458.96	531.66
459.742	577.78
460.523	578.81
461.305	577.78
462.086	624.93
462.868	723.32
463.649	611.61
464.43	560.36
465.211	702.82
465.992	547.03
466.773	721.27
467.554	603.41
468.335	605.46
469.115	632.11
469.896	519.35
470.676	492.7
471.457	614.68
472.237	601.36
473.018	607.51
473.798	599.31
474.578	631.08
475.358	589.06
476.138	516.28
476.918	534.73
477.697	570.61
478.477	671.05
479.257	613.66
480.036	547.03
480.816	519.35
481.595	618.78
482.374	587.01
483.153	645.43
483.932	609.56
484.711	594.18
485.49	595.21
486.269	544.98
487.048	496.8
487.827	643.38
488.605	572.66
489.384	553.18
490.162	623.91
490.941	671.05
491.719	558.31
492.497	577.78
493.275	561.38
494.053	606.48
494.831	563.43
495.609	596.23
496.387	615.71
497.164	628.01
497.942	604.43
498.72	575.73
499.497	585.98
500.274	507.05
501.052	578.81
501.829	638.26
502.606	556.26
503.383	598.28
504.16	632.11
504.937	614.68
505.714	543.96
506.49	667.98
507.267	511.15
508.043	623.91
508.82	675.15
509.596	523.45
510.373	555.23
511.149	536.78
511.925	564.46
512.701	599.31
513.477	672.08
514.253	579.83
515.029	582.91
515.804	585.98
516.58	684.37
517.356	584.96
518.131	688.47
518.906	549.08
519.682	597.26
520.457	578.81
521.232	617.76
522.007	611.61
522.782	546.01
523.557	524.48
524.332	535.76
525.107	682.33
525.881	540.88
526.656	509.1
527.43	542.93
528.205	579.83
528.979	523.45
529.753	560.36
530.527	655.68
531.302	560.36
532.076	598.28
532.849	576.76
533.623	580.86
534.397	533.71
535.171	597.26
535.944	645.43
536.718	529.61
537.491	715.12
538.265	491.67
539.038	605.46
539.811	621.86
540.584	580.86
541.357	578.81
542.13	681.3
542.903	696.67
543.676	590.08
544.449	599.31
545.221	622.88
545.994	584.96
546.766	595.21
547.539	546.01
548.311	621.86
549.083	604.43
549.855	448.62
550.627	646.46
551.399	599.31
552.171	681.3
552.943	621.86
553.715	542.93
554.486	581.88
555.258	535.76
556.029	532.68
556.801	634.16
557.572	523.45
558.343	556.26
559.114	655.68
559.886	631.08
560.657	571.63
561.427	510.13
562.198	549.08
562.969	608.53
563.74	581.88
564.51	557.28
565.281	688.47
566.051	551.13
566.822	565.48
567.592	582.91
568.362	564.46
569.132	570.61
569.902	753.03
570.672	513.2
571.442	625.96
572.212	614.68
572.982	574.71
573.751	624.93
574.521	585.98
575.29	719.22
576.06	630.06
576.829	589.06
577.598	572.66
578.367	522.43
579.136	553.18
579.905	611.61
580.674	658.75
581.443	647.48
582.212	580.86
582.981	661.83
583.749	556.26
584.518	573.68
585.286	682.33
586.054	731.51
586.823	625.96
587.591	539.86
588.359	643.38
589.127	608.53
589.895	686.42
590.663	695.65
591.431	631.08
592.198	625.96
592.966	652.6
593.734	682.33
594.501	582.91
595.268	599.31
596.036	691.55
596.803	561.38
597.57	566.51
598.337	579.83
599.104	565.48
599.871	630.06
600.638	628.01
601.405	670.03
602.171	560.36
602.938	766.35
603.704	540.88
604.471	560.36
605.237	687.45
606.004	582.91
606.77	644.41
607.536	696.67
608.302	652.6
609.068	660.8
609.834	602.38
610.599	645.43
611.365	554.21
612.131	598.28
612.896	625.96
613.662	701.8
614.427	639.28
615.193	604.43
615.958	611.61
616.723	635.18
617.488	494.75
618.253	607.51
619.018	595.21
619.783	557.28
620.548	677.2
621.312	596.23
622.077	565.48
622.842	623.91
623.606	750.98
624.37	611.61
625.135	649.53
625.899	632.11
626.663	582.91
627.427	636.21
628.191	629.03
628.955	686.42
629.719	607.51
630.483	608.53
631.246	509.1
632.01	578.81
632.773	684.37
633.537	549.08
634.3	593.16
635.063	572.66
635.827	513.2
636.59	567.53
637.353	634.16
638.116	649.53
638.879	526.53
639.641	718.19
640.404	631.08
641.167	601.36
641.929	652.6
642.692	531.66
643.454	551.13
644.216	640.31
644.979	645.43
645.741	626.98
646.503	674.13
647.265	653.63
648.027	703.85
648.789	548.06
649.551	623.91
650.312	600.33
651.074	576.76
651.835	571.63
652.597	620.83
653.358	650.56
654.12	606.48
654.881	574.71
655.642	606.48
656.403	566.51
657.164	656.7
657.925	605.46
658.686	657.73
659.447	551.13
660.207	566.51
660.968	636.21
661.728	699.75
662.489	610.58
663.249	621.86
664.01	579.83
664.77	669
665.53	653.63
666.29	564.46
667.05	649.53
667.81	575.73
668.57	557.28
669.329	574.71
670.089	588.03
670.849	615.71
671.608	638.26
672.368	524.48
673.127	651.58
673.886	565.48
674.646	522.43
675.405	605.46
676.164	644.41
676.923	640.31
677.682	709.99
678.44	628.01
679.199	547.03
679.958	806.31
680.717	613.66
681.475	546.01
682.233	574.71
682.992	508.08
683.75	593.16
684.508	635.18
685.266	541.91
686.024	646.46
686.782	588.03
687.54	645.43
688.298	626.98
689.056	684.37
689.814	537.81
690.571	623.91
691.329	605.46
692.086	585.98
692.843	567.53
693.601	637.23
694.358	659.78
695.115	536.78
695.872	563.43
696.629	527.56
697.386	670.03
698.143	672.08
698.9	547.03
699.656	552.16
700.413	589.06
701.169	641.33
701.926	583.93
702.682	593.16
703.438	561.38
704.195	684.37
704.951	532.68
705.707	537.81
706.463	532.68
707.219	577.78
707.974	544.98
708.73	494.75
709.486	562.41
710.241	579.83
710.997	576.76
711.752	604.43
712.508	589.06
713.263	580.86
714.018	589.06
714.773	580.86
715.528	721.27
716.283	651.58
717.038	550.11
717.793	638.26
718.548	584.96
719.303	610.58
720.057	563.43
720.812	571.63
721.566	523.45
722.321	593.16
723.075	571.63
723.829	628.01
724.583	584.96
725.337	581.88
726.091	684.37
726.845	606.48
727.599	512.18
728.353	601.36
729.106	543.96
729.86	694.62
730.614	525.51
731.367	5989.65
732.12	583.93
732.874	556.26
733.627	611.61
734.38	623.91
735.133	617.76
735.886	582.91
736.639	574.71
737.392	617.76
738.145	568.56
738.897	670.03
739.65	603.41
740.403	623.91
741.155	630.06
741.907	610.58
742.66	703.85
743.412	509.1
744.164	632.11
744.916	527.56
745.668	611.61
746.42	678.23
747.172	615.71
747.924	602.38
748.676	530.63
749.427	580.86
750.179	626.98
750.93	655.68
751.682	523.45
752.433	639.28
753.184	693.6
753.935	553.18
754.687	532.68
755.438	629.03
756.189	599.31
756.939	560.36
757.69	553.18
758.441	638.26
759.192	598.28
759.942	645.43
760.693	648.51
761.443	613.66
762.194	541.91
762.944	546.01
763.694	645.43
764.444	577.78
765.194	634.16
765.944	626.98
766.694	639.28
767.444	676.18
768.194	650.56
768.943	538.83
769.693	653.63
770.443	619.81
771.192	665.93
771.941	494.75
772.691	629.03
773.44	612.63
774.189	661.83
774.938	607.51
775.687	573.68
776.436	612.63
777.185	637.23
777.934	557.28
778.683	611.61
779.431	602.38
780.18	670.03
780.928	587.01
781.677	602.38
782.425	620.83
783.173	657.73
783.922	648.51
784.67	711.02
785.418	667.98
786.166	691.55
786.914	541.91
787.661	598.28
788.409	617.76
789.157	596.23
789.904	600.33
790.652	664.9
791.399	630.06
792.147	619.81
792.894	665.93
793.641	597.26
794.388	5590.37
795.136	651.58
795.883	589.06
796.629	667.98
797.376	526.53
798.123	560.36
798.87	529.61
799.616	572.66
800.363	721.27
801.109	691.55
801.856	656.7
802.602	479.37
803.349	697.7
804.095	736.64
804.841	601.36
805.587	617.76
806.333	632.11
807.079	645.43
807.825	624.93
808.57	616.73
809.316	725.37
810.062	625.96
810.807	663.88
811.553	741.76
812.298	695.65
813.043	630.06
813.788	688.47
814.534	620.83
815.279	706.92
816.024	666.95
816.769	638.26
817.514	645.43
818.258	624.93
819.003	698.72
819.748	15522.41
820.492	615.71
821.237	4715.65
821.981	587.01
822.726	700.77
823.47	704.87
824.214	703.85
824.958	643.38
825.702	642.36
826.446	660.8
827.19	656.7
827.934	719.22
828.678	650.56
829.421	727.42
830.165	659.78
830.909	630.06
831.652	605.46
832.395	693.6
833.139	683.35
833.882	800.16
834.625	640.31
835.368	621.86
836.111	570.61
836.854	616.73
837.597	653.63
838.34	683.35
839.083	655.68
839.825	684.37
840.568	552.16
841.311	637.23
842.053	695.65
842.795	556.26
843.538	607.51
844.28	567.53
845.022	538.83
845.764	771.48
846.506	528.58
847.248	595.21
847.99	646.46
848.732	650.56
849.474	580.86
850.215	527.56
850.957	507.05
851.698	563.43
852.44	662.85
853.181	585.98
853.922	698.72
854.664	596.23
855.405	692.57
856.146	537.81
856.887	597.26
857.628	681.3
858.369	518.33
859.109	684.37
859.85	583.93
860.591	664.9
861.331	555.23
862.072	516.28
862.812	490.65
863.553	550.11
864.293	670.03
865.033	575.73
865.773	621.86
866.513	519.35
867.253	533.71
867.993	570.61
868.733	589.06
869.473	632.11
870.213	684.37
870.952	518.33
871.692	597.26
872.431	553.18
873.171	592.13
873.91	576.76
874.649	501.93
875.388	602.38
876.128	587.01
876.867	521.4
877.606	592.13
878.345	574.71
879.083	548.06
879.822	529.61
880.561	605.46
881.299	569.58
882.038	587.01
882.777	658.75
883.515	688.47
884.253	7896.55
884.992	609.56
885.73	579.83
886.468	590.08
887.206	711.02
887.944	636.21
888.682	648.51
889.42	600.33
890.157	631.08
890.895	550.11
891.633	1280.45
892.37	607.51
893.108	631.08
893.845	611.61
894.583	612.63
895.32	518.33
896.057	526.53
896.794	605.46
897.531	644.41
898.268	579.83
899.005	565.48
899.742	594.18
900.479	575.73
901.215	595.21
901.952	564.46
902.689	527.56
903.425	497.83
904.162	535.76
904.898	611.61
905.634	667.98
906.37	597.26
907.106	511.15
907.843	609.56
908.579	573.68
909.314	451.69
910.05	572.66
910.786	587.01
911.522	516.28
912.257	643.38
912.993	597.26
913.728	554.21
914.464	590.08
915.199	553.18
915.935	508.08
916.67	552.16
917.405	610.58
918.14	613.66
918.875	614.68
919.61	666.95
920.345	670.03
921.08	692.57
921.814	589.06
922.549	540.88
923.284	827.83
924.018	550.11
924.752	676.18
925.487	615.71
926.221	639.28
926.955	594.18
927.69	536.78
928.424	589.06
929.158	619.81
929.892	552.16
930.625	629.03
931.359	709.99
932.093	634.16
932.827	560.36
933.56	574.71
934.294	508.08
935.027	618.78
935.761	638.26
936.494	574.71
937.227	544.98
937.96	622.88
938.693	651.58
939.426	532.68
940.159	673.1
940.892	593.16
941.625	675.15
942.358	652.6
943.091	583.93
943.823	519.35
944.556	517.3
945.288	561.38
946.021	625.96
946.753	569.58
947.485	647.48
948.217	607.51
948.95	608.53
949.682	511.15
950.414	542.93
951.146	591.11
951.877	580.86
952.609	583.93
953.341	619.81
954.073	684.37
954.804	599.31
955.536	588.03
956.267	619.81
956.998	548.06
957.73	555.23
958.461	542.93
959.192	514.23
959.923	662.85
960.654	598.28
961.385	570.61
962.116	596.23
962.847	567.53
963.578	583.93
964.308	571.63
965.039	514.23
965.769	599.31
966.5	621.86
967.23	568.56
967.961	601.36
968.691	648.51
969.421	503.98
970.151	639.28
970.881	523.45
971.611	658.75
972.341	615.71
973.071	663.88
973.801	679.25
974.53	558.31
975.26	562.41
975.99	593.16
976.719	661.83
977.448	572.66
978.178	577.78
978.907	611.61
979.636	533.71
980.365	654.65
981.095	679.25
981.824	640.31
982.553	610.58
983.281	554.21
984.01	3.46
984.739	-29.37
985.468	-46.82
986.196	-77.6
986.925	826.8
987.653	590.08
988.382	694.62
989.11	622.88
989.838	640.31
990.566	728.44
991.295	572.66
992.023	676.18
992.751	683.35
993.478	573.68
994.206	647.48
994.934	602.38
995.662	-12.95
996.389	-46.82
997.117	133.76
997.845	76.31
