Data from SampleKW32_QEPB07591_00004.txt Node
Date: Thu Aug 22 15:28:25 EDT 2019
User: wcc
Spectrometer: QEPB0759
Trigger mode: 0
Integration Time (sec): 1.749000E0
Scans to average: 1
Electric dark correction enabled: true
Nonlinearity correction enabled: true
Boxcar width: 0
XAxis mode: Wavelengths
Number of Pixels in Spectrum: 1044
>>>>>Begin Spectral Data<<<<<
197.938	644.53
198.749	615.84
199.559	570.74
200.369	572.79
201.179	597.39
201.988	597.39
202.798	709.1
203.608	579.96
204.417	594.31
205.227	563.56
206.036	627.11
206.846	633.26
207.655	675.28
208.464	630.19
209.273	674.25
210.082	567.66
210.891	562.54
211.7	585.09
212.508	566.64
213.317	551.26
214.125	530.76
214.934	585.09
215.742	571.76
216.55	561.51
217.359	538.96
218.167	564.59
218.975	651.71
219.782	555.36
220.59	545.11
221.398	535.88
222.206	720.37
223.013	606.61
223.82	542.04
224.628	550.24
225.435	574.84
226.242	639.41
227.049	634.29
227.856	566.64
228.663	618.91
229.47	591.24
230.277	590.21
231.083	578.94
231.89	569.71
232.696	621.99
233.502	580.99
234.309	554.34
235.115	648.63
235.921	613.79
236.727	517.43
237.533	635.31
238.339	634.29
239.144	618.91
239.95	739.84
240.756	619.94
241.561	608.66
242.366	558.44
243.172	631.21
243.977	660.93
244.782	619.94
245.587	634.29
246.392	651.71
247.197	535.88
248.001	520.51
248.806	573.81
249.611	568.69
250.415	617.89
251.219	590.21
252.024	616.86
252.828	569.71
253.632	564.59
254.436	564.59
255.24	647.61
256.044	652.73
256.848	583.04
257.651	550.24
258.455	611.74
259.258	606.61
260.062	51865.51
260.865	649.66
261.668	621.99
262.471	561.51
263.274	633.26
264.077	549.21
264.88	602.51
265.683	529.73
266.486	602.51
267.288	653.76
268.091	535.88
268.893	584.06
269.696	620.96
270.498	609.69
271.3	604.56
272.102	673.23
272.904	586.11
273.706	604.56
274.508	598.41
275.309	611.74
276.111	616.86
276.913	529.73
277.714	507.18
278.515	573.81
279.317	644.53
280.118	526.66
280.919	599.44
281.72	597.39
282.521	630.19
283.322	557.41
284.122	606.61
284.923	630.19
285.724	586.11
286.524	584.06
287.325	696.8
288.125	531.78
288.925	583.04
289.725	600.46
290.525	694.75
291.325	599.44
292.125	633.26
292.925	642.48
293.724	537.93
294.524	511.28
295.324	542.04
296.123	600.46
296.922	568.69
297.722	858.69
298.521	606.61
299.32	703.97
300.119	520.51
300.918	617.89
301.716	721.39
302.515	595.34
303.314	666.06
304.112	586.11
304.911	701.92
305.709	582.01
306.507	647.61
307.306	596.36
308.104	591.24
308.902	600.46
309.7	597.39
310.498	643.51
311.295	525.63
312.093	646.58
312.891	693.73
313.688	650.68
314.485	598.41
315.283	736.77
316.08	624.04
316.877	590.21
317.674	579.96
318.471	483.6
319.268	565.61
320.065	626.09
320.862	636.33
321.658	589.19
322.455	662.98
323.251	546.14
324.047	557.41
324.844	721.39
325.64	543.06
326.436	594.31
327.232	586.11
328.028	601.49
328.824	548.19
329.62	644.53
330.415	725.49
331.211	617.89
332.006	610.71
332.802	672.21
333.597	593.29
334.392	671.18
335.187	633.26
335.982	566.64
336.777	638.38
337.572	586.11
338.367	616.86
339.162	667.08
339.956	604.56
340.751	620.96
341.545	657.86
342.34	662.98
343.134	551.26
343.928	670.16
344.722	660.93
345.516	558.44
346.31	566.64
347.104	594.31
347.898	603.54
348.691	605.59
349.485	520.51
350.278	641.46
351.072	713.2
351.865	7317.04
352.658	625.06
353.452	683.48
354.245	588.16
355.038	647.61
355.83	591.24
356.623	567.66
357.416	573.81
358.209	594.31
359.001	562.54
359.794	624.04
360.586	619.94
361.378	655.81
362.17	577.91
362.963	544.09
363.755	695.78
364.546	526.66
365.338	633.26
366.13	650.68
366.922	612.76
367.713	592.26
368.505	603.54
369.296	586.11
370.088	489.75
370.879	560.49
371.67	597.39
372.461	549.21
373.252	586.11
374.043	681.43
374.834	478.48
375.625	624.04
376.415	661.96
377.206	626.09
377.996	587.14
378.787	708.07
379.577	517.43
380.367	493.85
381.157	616.86
381.947	586.11
382.737	616.86
383.527	626.09
384.317	701.92
385.107	609.69
385.896	658.88
386.686	625.06
387.475	651.71
388.265	578.94
389.054	848.45
389.843	605.59
390.632	621.99
391.421	643.51
392.21	690.65
392.999	558.44
393.788	646.58
394.576	652.73
395.365	626.09
396.154	608.66
396.942	589.19
397.73	648.63
398.519	624.04
399.307	651.71
400.095	631.21
400.883	739.84
401.671	638.38
402.459	665.03
403.246	585.09
404.034	631.21
404.822	618.91
405.609	722.42
406.396	725.49
407.184	588.16
407.971	687.58
408.758	685.53
409.545	523.58
410.332	695.78
411.119	702.95
411.906	598.41
412.693	685.53
413.479	696.8
414.266	634.29
415.052	698.85
415.839	665.03
416.625	648.63
417.411	737.79
418.197	768.53
418.983	793.12
419.769	744.96
420.555	672.21
421.341	690.65
422.127	693.73
422.912	685.53
423.698	767.51
424.483	657.86
425.269	643.51
426.054	609.69
426.839	717.3
427.624	659.91
428.409	693.73
429.194	705
429.979	747.01
430.764	727.54
431.549	727.54
432.333	717.3
433.118	637.36
433.902	754.19
434.687	696.8
435.471	752.14
436.255	759.31
437.039	737.79
437.823	745.99
438.607	735.74
439.391	773.65
440.175	760.33
440.958	754.19
441.742	761.36
442.526	696.8
443.309	792.1
444.092	854.59
444.876	779.8
445.659	778.78
446.442	880.2
447.225	852.54
448.008	900.69
448.791	874.06
449.573	962.15
450.356	925.28
451.139	895.57
451.921	813.61
452.704	870.98
453.486	846.4
454.268	897.62
455.05	878.15
455.833	853.57
456.615	888.4
457.396	879.18
458.178	925.28
458.96	809.51
459.742	882.25
460.523	849.47
461.305	863.81
462.086	923.23
462.868	1004.14
463.649	906.84
464.43	854.59
465.211	983.66
465.992	840.25
466.773	1049.2
467.554	945.76
468.335	951.91
469.115	939.62
469.896	820.78
470.676	772.63
471.457	917.08
472.237	922.2
473.018	912.98
473.798	881.23
474.578	885.33
475.358	818.73
476.138	757.26
476.918	768.53
477.697	799.27
478.477	903.76
479.257	815.66
480.036	777.75
480.816	738.81
481.595	841.27
482.374	796.19
483.153	853.57
483.932	802.34
484.711	768.53
485.49	759.31
486.269	721.39
487.048	664.01
487.827	783.9
488.605	712.17
489.384	693.73
490.162	782.87
490.941	808.49
491.719	692.7
492.497	712.17
493.275	702.95
494.053	734.72
494.831	653.76
495.609	707.05
496.387	728.57
497.164	734.72
497.942	691.68
498.72	656.83
499.497	675.28
500.274	588.16
501.052	641.46
501.829	714.22
502.606	620.96
503.383	656.83
504.16	679.38
504.937	661.96
505.714	568.69
506.49	717.3
507.267	556.39
508.043	638.38
508.82	727.54
509.596	555.36
510.373	585.09
511.149	546.14
511.925	590.21
512.701	613.79
513.477	681.43
514.253	603.54
515.029	583.04
515.804	584.06
516.58	686.55
517.356	588.16
518.131	715.25
518.906	542.04
519.682	613.79
520.457	595.34
521.232	615.84
522.007	634.29
522.782	552.29
523.557	524.61
524.332	537.93
525.107	683.48
525.881	560.49
526.656	518.46
527.43	553.31
528.205	571.76
528.979	535.88
529.753	568.69
530.527	633.26
531.302	558.44
532.076	605.59
532.849	584.06
533.623	584.06
534.397	536.91
535.171	602.51
535.944	645.56
536.718	536.91
537.491	713.2
538.265	494.88
539.038	612.76
539.811	620.96
540.584	580.99
541.357	575.86
542.13	687.58
542.903	706.02
543.676	601.49
544.449	612.76
545.221	637.36
545.994	575.86
546.766	608.66
547.539	548.19
548.311	642.48
549.083	607.64
549.855	459
550.627	647.61
551.399	598.41
552.171	682.45
552.943	641.46
553.715	546.14
554.486	593.29
555.258	543.06
556.029	536.91
556.801	627.11
557.572	528.71
558.343	580.99
559.114	654.78
559.886	646.58
560.657	590.21
561.427	516.41
562.198	530.76
562.969	605.59
563.74	585.09
564.51	550.24
565.281	688.6
566.051	561.51
566.822	568.69
567.592	590.21
568.362	562.54
569.132	575.86
569.902	753.16
570.672	542.04
571.442	621.99
572.212	621.99
572.982	584.06
573.751	617.89
574.521	589.19
575.29	703.97
576.06	638.38
576.829	608.66
577.598	575.86
578.367	525.63
579.136	558.44
579.905	601.49
580.674	664.01
581.443	640.43
582.212	577.91
582.981	659.91
583.749	572.79
584.518	592.26
585.286	676.3
586.054	726.52
586.823	630.19
587.591	545.11
588.359	666.06
589.127	614.81
589.895	679.38
590.663	699.87
591.431	626.09
592.198	652.73
592.966	651.71
593.734	701.92
594.501	615.84
595.268	633.26
596.036	738.81
596.803	636.33
597.57	657.86
598.337	653.76
599.104	689.63
599.871	783.9
600.638	822.83
601.405	870.98
602.171	808.49
602.938	1042.03
603.704	866.89
604.471	918.1
605.237	1098.35
606.004	1035.89
606.77	1143.41
607.536	1220.19
608.302	1224.28
609.068	1250.9
609.834	1219.16
610.599	1302.08
611.365	1244.76
612.131	1320.5
612.896	1398.28
613.662	1458.65
614.427	1430
615.193	1418.74
615.958	1437.16
616.723	1465.81
617.488	1365.53
618.253	1472.97
619.018	1496.5
619.783	1456.6
620.548	1554.82
621.312	1478.09
622.077	1453.53
622.842	1533.33
623.606	1644.83
624.37	1510.83
625.135	1549.7
625.899	1539.47
626.663	1468.88
627.427	1538.45
628.191	1517.99
628.955	1563
629.719	1484.23
630.483	1492.41
631.246	1386
632.01	1432.04
632.773	1527.19
633.537	1402.37
634.3	1443.3
635.063	1399.3
635.827	1349.16
636.59	1359.39
637.353	1447.39
638.116	1435.11
638.879	1293.89
639.641	1496.5
640.404	1395.21
641.167	1351.2
641.929	1375.76
642.692	1269.32
643.454	1291.84
644.216	1378.83
644.979	1355.3
645.741	1345.06
646.503	1397.25
647.265	1377.81
648.027	1418.74
648.789	1271.37
649.551	1328.69
650.312	1297.98
651.074	1270.35
651.835	1242.71
652.597	1272.39
653.358	1307.19
654.12	1254.99
654.881	1240.66
655.642	1267.28
656.403	1208.93
657.164	1272.39
657.925	1252.94
658.686	1302.08
659.447	1184.36
660.207	1193.57
660.968	1267.28
661.728	1320.5
662.489	1244.76
663.249	1249.87
664.01	1221.21
664.77	1293.89
665.53	1300.03
666.29	1198.69
667.05	1313.33
667.81	1227.35
668.57	1216.09
669.329	1248.85
670.089	1230.42
670.849	1239.64
671.608	1293.89
672.368	1179.24
673.127	1306.17
673.886	1217.12
674.646	1186.4
675.405	1257.04
676.164	1286.72
676.923	1278.53
677.682	1344.04
678.44	1251.92
679.199	1175.14
679.958	1434.09
680.717	1235.54
681.475	1190.5
682.233	1222.24
682.992	1163.88
683.75	1234.52
684.508	1258.06
685.266	1143.41
686.024	1239.64
686.782	1161.83
687.54	1230.42
688.298	1215.07
689.056	1265.23
689.814	1071.73
690.571	1191.52
691.329	1145.45
692.086	1094.26
692.843	1078.9
693.601	1137.26
694.358	1163.88
695.115	1028.72
695.872	1046.13
696.629	989.8
697.386	1128.05
698.143	1146.48
698.9	1001.07
699.656	990.83
700.413	1034.86
701.169	1070.71
701.926	1013.36
702.682	1046.13
703.438	993.9
704.195	1117.81
704.951	946.79
705.707	949.86
706.463	948.83
707.219	977.51
707.974	965.22
708.73	901.72
709.486	975.46
710.241	983.66
710.997	969.32
711.752	1010.29
712.508	999.02
713.263	972.39
714.018	966.25
714.773	977.51
715.528	1067.63
716.283	1006.19
717.038	894.54
717.793	937.57
718.548	921.18
719.303	926.3
720.057	845.37
720.812	840.25
721.566	791.07
722.321	847.42
723.075	819.76
723.829	879.18
724.583	803.37
725.337	810.54
726.091	900.69
726.845	838.2
727.599	744.96
728.353	825.91
729.106	766.48
729.86	890.45
730.614	741.89
731.367	6435.28
732.12	810.54
732.874	757.26
733.627	811.56
734.38	841.27
735.133	809.51
735.886	750.09
736.639	753.16
737.392	800.29
738.145	717.3
738.897	850.49
739.65	775.7
740.403	776.73
741.155	791.07
741.907	773.65
742.66	851.52
743.412	643.51
744.164	753.16
744.916	617.89
745.668	672.21
746.42	732.67
747.172	650.68
747.924	611.74
748.676	544.09
749.427	583.04
750.179	638.38
750.93	668.11
751.682	535.88
752.433	651.71
753.184	703.97
753.935	563.56
754.687	537.93
755.438	629.16
756.189	594.31
756.939	562.54
757.69	547.16
758.441	648.63
759.192	594.31
759.942	660.93
760.693	658.88
761.443	629.16
762.194	567.66
762.944	544.09
763.694	639.41
764.444	575.86
765.194	649.66
765.944	630.19
766.694	648.63
767.444	674.25
768.194	641.46
768.943	554.34
769.693	668.11
770.443	616.86
771.192	666.06
771.941	504.11
772.691	647.61
773.44	605.59
774.189	667.08
774.938	603.54
775.687	577.91
776.436	628.14
777.185	653.76
777.934	557.41
778.683	604.56
779.431	596.36
780.18	655.81
780.928	593.29
781.677	598.41
782.425	629.16
783.173	653.76
783.922	645.56
784.67	711.15
785.418	657.86
786.166	719.35
786.914	559.46
787.661	619.94
788.409	608.66
789.157	601.49
789.904	593.29
790.652	683.48
791.399	647.61
792.147	638.38
792.894	674.25
793.641	606.61
794.388	5333.94
795.136	636.33
795.883	580.99
796.629	669.13
797.376	538.96
798.123	557.41
798.87	520.51
799.616	572.79
800.363	715.25
801.109	706.02
801.856	667.08
802.602	491.8
803.349	703.97
804.095	730.62
804.841	608.66
805.587	623.01
806.333	647.61
807.079	655.81
807.825	631.21
808.57	614.81
809.316	733.69
810.062	637.36
810.807	657.86
811.553	736.77
812.298	681.43
813.043	632.24
813.788	695.78
814.534	625.06
815.279	710.12
816.024	658.88
816.769	650.68
817.514	667.08
818.258	641.46
819.003	725.49
819.748	15501.55
820.492	628.14
821.237	4708.67
821.981	595.34
822.726	695.78
823.47	705
824.214	703.97
824.958	631.21
825.702	646.58
826.446	657.86
827.19	673.23
827.934	723.44
828.678	667.08
829.421	726.52
830.165	658.88
830.909	647.61
831.652	615.84
832.395	694.75
833.139	695.78
833.882	788
834.625	647.61
835.368	625.06
836.111	582.01
836.854	621.99
837.597	654.78
838.34	674.25
839.083	652.73
839.825	676.3
840.568	555.36
841.311	655.81
842.053	684.5
842.795	566.64
843.538	615.84
844.28	571.76
845.022	544.09
845.764	770.58
846.506	528.71
847.248	590.21
847.99	644.53
848.732	640.43
849.474	605.59
850.215	518.46
850.957	506.16
851.698	577.91
852.44	667.08
853.181	603.54
853.922	707.05
854.664	591.24
855.405	705
856.146	539.98
856.887	613.79
857.628	688.6
858.369	524.61
859.109	691.68
859.85	597.39
860.591	687.58
861.331	561.51
862.072	513.33
862.812	492.83
863.553	545.11
864.293	688.6
865.033	590.21
865.773	593.29
866.513	530.76
867.253	547.16
867.993	572.79
868.733	608.66
869.473	634.29
870.213	678.35
870.952	531.78
871.692	597.39
872.431	556.39
873.171	602.51
873.91	560.49
874.649	489.75
875.388	620.96
876.128	584.06
876.867	517.43
877.606	607.64
878.345	575.86
879.083	552.29
879.822	546.14
880.561	614.81
881.299	580.99
882.038	577.91
882.777	652.73
883.515	685.53
884.253	7918.88
884.992	603.54
885.73	578.94
886.468	603.54
887.206	718.32
887.944	649.66
888.682	655.81
889.42	597.39
890.157	621.99
890.895	554.34
891.633	1301.05
892.37	619.94
893.108	636.33
893.845	631.21
894.583	605.59
895.32	527.68
896.057	552.29
896.794	613.79
897.531	647.61
898.268	569.71
899.005	532.81
899.742	596.36
900.479	582.01
901.215	603.54
901.952	569.71
902.689	539.98
903.425	507.18
904.162	532.81
904.898	609.69
905.634	688.6
906.37	613.79
907.106	525.63
907.843	624.04
908.579	584.06
909.314	476.43
910.05	588.16
910.786	590.21
911.522	518.46
912.257	639.41
912.993	594.31
913.728	566.64
914.464	590.21
915.199	561.51
915.935	520.51
916.67	564.59
917.405	618.91
918.14	612.76
918.875	615.84
919.61	661.96
920.345	678.35
921.08	688.6
921.814	590.21
922.549	545.11
923.284	819.76
924.018	566.64
924.752	658.88
925.487	607.64
926.221	632.24
926.955	593.29
927.69	535.88
928.424	599.44
929.158	630.19
929.892	552.29
930.625	637.36
931.359	712.17
932.093	649.66
932.827	569.71
933.56	583.04
934.294	518.46
935.027	617.89
935.761	642.48
936.494	578.94
937.227	555.36
937.96	641.46
938.693	644.53
939.426	552.29
940.159	652.73
940.892	605.59
941.625	691.68
942.358	657.86
943.091	569.71
943.823	536.91
944.556	496.93
945.288	553.31
946.021	609.69
946.753	563.56
947.485	648.63
948.217	595.34
948.95	620.96
949.682	531.78
950.414	550.24
951.146	608.66
951.877	566.64
952.609	578.94
953.341	614.81
954.073	686.55
954.804	601.49
955.536	583.04
956.267	620.96
956.998	552.29
957.73	555.36
958.461	558.44
959.192	528.71
959.923	670.16
960.654	620.96
961.385	570.74
962.116	614.81
962.847	583.04
963.578	596.36
964.308	570.74
965.039	513.33
965.769	600.46
966.5	621.99
967.23	575.86
967.961	609.69
968.691	649.66
969.421	521.53
970.151	642.48
970.881	528.71
971.611	660.93
972.341	601.49
973.071	653.76
973.801	689.63
974.53	559.46
975.26	584.06
975.99	592.26
976.719	665.03
977.448	579.96
978.178	564.59
978.907	619.94
979.636	528.71
980.365	651.71
981.095	686.55
981.824	647.61
982.553	605.59
983.281	577.91
984.01	2.57
984.739	-22.06
985.468	-43.61
986.196	-83.63
986.925	845.37
987.653	585.09
988.382	699.87
989.11	627.11
989.838	650.68
990.566	729.59
991.295	583.04
992.023	699.87
992.751	679.38
993.478	587.14
994.206	641.46
994.934	606.61
995.662	-16.93
996.389	-52.85
997.117	129.79
997.845	86.7
