Data from SampleKW32_QEPB07591_00005.txt Node
Date: Thu Aug 22 15:28:26 EDT 2019
User: wcc
Spectrometer: QEPB0759
Trigger mode: 0
Integration Time (sec): 1.749000E0
Scans to average: 1
Electric dark correction enabled: true
Nonlinearity correction enabled: true
Boxcar width: 0
XAxis mode: Wavelengths
Number of Pixels in Spectrum: 1044
>>>>>Begin Spectral Data<<<<<
197.938	627.11
198.749	606.61
199.559	577.91
200.369	575.86
201.179	584.06
201.988	593.29
202.798	715.25
203.608	568.69
204.417	589.19
205.227	568.69
206.036	631.21
206.846	644.53
207.655	665.03
208.464	631.21
209.273	667.08
210.082	574.84
210.891	564.59
211.7	596.36
212.508	574.84
213.317	550.24
214.125	528.71
214.934	567.66
215.742	572.79
216.55	560.49
217.359	542.04
218.167	563.56
218.975	655.81
219.782	559.46
220.59	543.06
221.398	531.78
222.206	714.22
223.013	614.81
223.82	537.93
224.628	565.61
225.435	583.04
226.242	637.36
227.049	623.01
227.856	553.31
228.663	615.84
229.47	589.19
230.277	595.34
231.083	576.89
231.89	564.59
232.696	626.09
233.502	583.04
234.309	561.51
235.115	632.24
235.921	615.84
236.727	514.36
237.533	659.91
238.339	640.43
239.144	620.96
239.95	740.86
240.756	619.94
241.561	599.44
242.366	557.41
243.172	627.11
243.977	677.33
244.782	627.11
245.587	637.36
246.392	645.56
247.197	524.61
248.001	533.83
248.806	568.69
249.611	567.66
250.415	613.79
251.219	595.34
252.024	625.06
252.828	567.66
253.632	574.84
254.436	551.26
255.24	647.61
256.044	655.81
256.848	587.14
257.651	549.21
258.455	589.19
259.258	618.91
260.062	51260.88
260.865	651.71
261.668	630.19
262.471	560.49
263.274	639.41
264.077	530.76
264.88	595.34
265.683	542.04
266.486	583.04
267.288	661.96
268.091	539.98
268.893	577.91
269.696	618.91
270.498	619.94
271.3	602.51
272.102	675.28
272.904	583.04
273.706	593.29
274.508	597.39
275.309	626.09
276.111	615.84
276.913	538.96
277.714	502.05
278.515	561.51
279.317	652.73
280.118	544.09
280.919	603.54
281.72	586.11
282.521	640.43
283.322	556.39
284.122	626.09
284.923	635.31
285.724	591.24
286.524	584.06
287.325	695.78
288.125	526.66
288.925	571.76
289.725	601.49
290.525	687.58
291.325	588.16
292.125	612.76
292.925	650.68
293.724	555.36
294.524	526.66
295.324	538.96
296.123	613.79
296.922	595.34
297.722	845.37
298.521	611.74
299.32	717.3
300.119	542.04
300.918	621.99
301.716	711.15
302.515	596.36
303.314	669.13
304.112	578.94
304.911	688.6
305.709	590.21
306.507	642.48
307.306	592.26
308.104	579.96
308.902	617.89
309.7	599.44
310.498	655.81
311.295	515.38
312.093	640.43
312.891	698.85
313.688	641.46
314.485	600.46
315.283	719.35
316.08	638.38
316.877	591.24
317.674	599.44
318.471	495.9
319.268	567.66
320.065	613.79
320.862	634.29
321.658	598.41
322.455	661.96
323.251	549.21
324.047	550.24
324.844	712.17
325.64	534.86
326.436	599.44
327.232	586.11
328.028	598.41
328.824	561.51
329.62	657.86
330.415	739.84
331.211	627.11
332.006	600.46
332.802	665.03
333.597	592.26
334.392	655.81
335.187	635.31
335.982	564.59
336.777	633.26
337.572	582.01
338.367	639.41
339.162	659.91
339.956	608.66
340.751	628.14
341.545	660.93
342.34	670.16
343.134	550.24
343.928	673.23
344.722	653.76
345.516	569.71
346.31	563.56
347.104	600.46
347.898	601.49
348.691	606.61
349.485	520.51
350.278	640.43
351.072	700.9
351.865	7340.28
352.658	606.61
353.452	692.7
354.245	575.86
355.038	642.48
355.83	592.26
356.623	578.94
357.416	578.94
358.209	587.14
359.001	566.64
359.794	623.01
360.586	637.36
361.378	659.91
362.17	589.19
362.963	550.24
363.755	691.68
364.546	518.46
365.338	633.26
366.13	646.58
366.922	616.86
367.713	595.34
368.505	598.41
369.296	575.86
370.088	501.03
370.879	561.51
371.67	603.54
372.461	551.26
373.252	599.44
374.043	688.6
374.834	489.75
375.625	640.43
376.415	655.81
377.206	628.14
377.996	593.29
378.787	709.1
379.577	525.63
380.367	501.03
381.157	628.14
381.947	583.04
382.737	615.84
383.527	628.14
384.317	690.65
385.107	604.56
385.896	661.96
386.686	614.81
387.475	656.83
388.265	598.41
389.054	858.69
389.843	593.29
390.632	618.91
391.421	641.46
392.21	687.58
392.999	576.89
393.788	643.51
394.576	665.03
395.365	626.09
396.154	607.64
396.942	588.16
397.73	625.06
398.519	652.73
399.307	648.63
400.095	647.61
400.883	741.89
401.671	649.66
402.459	655.81
403.246	586.11
404.034	620.96
404.822	607.64
405.609	705
406.396	723.44
407.184	577.91
407.971	695.78
408.758	689.63
409.545	525.63
410.332	697.83
411.119	706.02
411.906	604.56
412.693	686.55
413.479	721.39
414.266	636.33
415.052	709.1
415.839	690.65
416.625	641.46
417.411	732.67
418.197	753.16
418.983	794.15
419.769	727.54
420.555	662.98
421.341	679.38
422.127	693.73
422.912	666.06
423.698	753.16
424.483	672.21
425.269	646.58
426.054	604.56
426.839	731.64
427.624	657.86
428.409	697.83
429.194	710.12
429.979	733.69
430.764	743.94
431.549	709.1
432.333	715.25
433.118	634.29
433.902	760.33
434.687	708.07
435.471	742.91
436.255	747.01
437.039	736.77
437.823	750.09
438.607	742.91
439.391	758.28
440.175	775.7
440.958	739.84
441.742	765.46
442.526	692.7
443.309	796.19
444.092	863.81
444.876	806.44
445.659	777.75
446.442	875.08
447.225	854.59
448.008	881.23
448.791	873.03
449.573	975.46
450.356	917.08
451.139	898.64
451.921	804.39
452.704	877.13
453.486	851.52
454.268	906.84
455.05	873.03
455.833	849.47
456.615	901.72
457.396	877.13
458.178	924.25
458.96	817.71
459.742	877.13
460.523	883.28
461.305	862.79
462.086	939.62
462.868	1010.29
463.649	911.96
464.43	841.27
465.211	1009.26
465.992	875.08
466.773	1050.23
467.554	930.4
468.335	956
469.115	942.69
469.896	823.86
470.676	785.95
471.457	921.18
472.237	923.23
473.018	894.54
473.798	886.35
474.578	886.35
475.358	833.08
476.138	764.43
476.918	761.36
477.697	795.17
478.477	895.57
479.257	830
480.036	785.95
480.816	749.06
481.595	828.98
482.374	784.92
483.153	851.52
483.932	794.15
484.711	777.75
485.49	785.95
486.269	721.39
487.048	670.16
487.827	793.12
488.605	720.37
489.384	697.83
490.162	764.43
490.941	819.76
491.719	693.73
492.497	726.52
493.275	709.1
494.053	728.57
494.831	670.16
495.609	705
496.387	719.35
497.164	726.52
497.942	696.8
498.72	665.03
499.497	687.58
500.274	580.99
501.052	638.38
501.829	702.95
502.606	614.81
503.383	648.63
504.16	681.43
504.937	675.28
505.714	580.99
506.49	721.39
507.267	543.06
508.043	647.61
508.82	719.35
509.596	552.29
510.373	600.46
511.149	547.16
511.925	567.66
512.701	611.74
513.477	690.65
514.253	609.69
515.029	582.01
515.804	600.46
516.58	689.63
517.356	601.49
518.131	695.78
518.906	558.44
519.682	614.81
520.457	586.11
521.232	632.24
522.007	635.31
522.782	554.34
523.557	546.14
524.332	528.71
525.107	675.28
525.881	548.19
526.656	508.21
527.43	550.24
528.205	579.96
528.979	537.93
529.753	575.86
530.527	632.24
531.302	563.56
532.076	616.86
532.849	571.76
533.623	584.06
534.397	542.04
535.171	603.54
535.944	644.53
536.718	524.61
537.491	705
538.265	490.78
539.038	625.06
539.811	620.96
540.584	584.06
541.357	571.76
542.13	701.92
542.903	703.97
543.676	620.96
544.449	603.54
545.221	628.14
545.994	572.79
546.766	610.71
547.539	568.69
548.311	631.21
549.083	600.46
549.855	454.89
550.627	660.93
551.399	602.51
552.171	697.83
552.943	631.21
553.715	548.19
554.486	587.14
555.258	558.44
556.029	541.01
556.801	631.21
557.572	522.56
558.343	560.49
559.114	658.88
559.886	642.48
560.657	583.04
561.427	488.73
562.198	556.39
562.969	604.56
563.74	594.31
564.51	560.49
565.281	697.83
566.051	567.66
566.822	569.71
567.592	598.41
568.362	559.46
569.132	564.59
569.902	748.04
570.672	531.78
571.442	621.99
572.212	635.31
572.982	590.21
573.751	627.11
574.521	597.39
575.29	716.27
576.06	635.31
576.829	590.21
577.598	561.51
578.367	528.71
579.136	559.46
579.905	638.38
580.674	668.11
581.443	632.24
582.212	580.99
582.981	657.86
583.749	574.84
584.518	572.79
585.286	687.58
586.054	733.69
586.823	630.19
587.591	547.16
588.359	662.98
589.127	608.66
589.895	682.45
590.663	698.85
591.431	634.29
592.198	659.91
592.966	678.35
593.734	705
594.501	608.66
595.268	639.41
596.036	749.06
596.803	621.99
597.57	651.71
598.337	669.13
599.104	684.5
599.871	794.15
600.638	809.51
601.405	874.06
602.171	806.44
602.938	1027.7
603.704	865.86
604.471	927.32
605.237	1085.04
606.004	1046.13
606.77	1150.57
607.536	1217.12
608.302	1225.31
609.068	1262.16
609.834	1227.35
610.599	1307.19
611.365	1241.68
612.131	1320.5
612.896	1374.74
613.662	1470.93
614.427	1422.83
615.193	1407.49
615.958	1436.14
616.723	1481.16
617.488	1348.13
618.253	1467.86
619.018	1482.18
619.783	1442.28
620.548	1553.79
621.312	1490.36
622.077	1447.39
622.842	1540.49
623.606	1631.53
624.37	1517.99
625.135	1557.88
625.899	1547.65
626.663	1498.55
627.427	1549.7
628.191	1498.55
628.955	1582.43
629.719	1470.93
630.483	1494.46
631.246	1392.14
632.01	1450.46
632.773	1552.77
633.537	1395.21
634.3	1447.39
635.063	1399.3
635.827	1347.11
636.59	1392.14
637.353	1451.49
638.116	1450.46
638.879	1311.29
639.641	1489.34
640.404	1403.39
641.167	1337.9
641.929	1396.23
642.692	1277.51
643.454	1300.03
644.216	1381.9
644.979	1371.67
645.741	1343.01
646.503	1390.09
647.265	1393.16
648.027	1430
648.789	1257.04
649.551	1338.92
650.312	1292.86
651.074	1263.18
651.835	1237.59
652.597	1287.75
653.358	1299.01
654.12	1261.13
654.881	1217.12
655.642	1260.11
656.403	1218.14
657.164	1281.61
657.925	1249.87
658.686	1270.35
659.447	1181.29
660.207	1177.19
660.968	1272.39
661.728	1330.73
662.489	1245.78
663.249	1262.16
664.01	1207.9
664.77	1301.05
665.53	1289.79
666.29	1193.57
667.05	1305.15
667.81	1236.57
668.57	1212
669.329	1236.57
670.089	1217.12
670.849	1274.44
671.608	1294.91
672.368	1180.26
673.127	1286.72
673.886	1229.4
674.646	1183.33
675.405	1269.32
676.164	1294.91
676.923	1282.63
677.682	1363.48
678.44	1263.18
679.199	1160.81
679.958	1425.9
680.717	1253.97
681.475	1185.38
682.233	1232.47
682.992	1165.93
683.75	1223.26
684.508	1269.32
685.266	1153.64
686.024	1256.02
686.782	1180.26
687.54	1214.05
688.298	1224.28
689.056	1236.57
689.814	1088.11
690.571	1187.43
691.329	1146.48
692.086	1093.23
692.843	1078.9
693.601	1134.19
694.358	1157.74
695.115	1033.84
695.872	1044.08
696.629	999.02
697.386	1155.69
698.143	1144.43
698.9	996.97
699.656	986.73
700.413	1034.86
701.169	1086.07
701.926	1020.53
702.682	1039.98
703.438	992.88
704.195	1115.76
704.951	940.64
705.707	941.66
706.463	952.93
707.219	992.88
707.974	952.93
708.73	903.76
709.486	973.42
710.241	989.8
710.997	973.42
711.752	1012.33
712.508	1003.12
713.263	979.56
714.018	982.63
714.773	966.25
715.528	1071.73
716.283	989.8
717.038	880.2
717.793	933.47
718.548	911.96
719.303	915.03
720.057	857.67
720.812	836.15
721.566	776.73
722.321	853.57
723.075	832.05
723.829	873.03
724.583	799.27
725.337	832.05
726.091	912.98
726.845	834.1
727.599	752.14
728.353	826.93
729.106	754.19
729.86	892.5
730.614	751.11
731.367	6385.69
732.12	804.39
732.874	763.41
733.627	818.73
734.38	843.32
735.133	809.51
735.886	753.16
736.639	740.86
737.392	794.15
738.145	727.54
738.897	863.81
739.65	767.51
740.403	788
741.155	784.92
741.907	790.05
742.66	836.15
743.412	642.48
744.164	760.33
744.916	626.09
745.668	678.35
746.42	742.91
747.172	650.68
747.924	615.84
748.676	527.68
749.427	582.01
750.179	633.26
750.93	671.18
751.682	545.11
752.433	652.73
753.184	714.22
753.935	580.99
754.687	535.88
755.438	638.38
756.189	595.34
756.939	561.51
757.69	555.36
758.441	658.88
759.192	596.36
759.942	673.23
760.693	652.73
761.443	625.06
762.194	557.41
762.944	538.96
763.694	641.46
764.444	573.81
765.194	636.33
765.944	623.01
766.694	650.68
767.444	689.63
768.194	650.68
768.943	553.31
769.693	657.86
770.443	620.96
771.192	673.23
771.941	501.03
772.691	638.38
773.44	602.51
774.189	652.73
774.938	625.06
775.687	582.01
776.436	620.96
777.185	637.36
777.934	555.36
778.683	623.01
779.431	613.79
780.18	673.23
780.928	591.24
781.677	607.64
782.425	632.24
783.173	658.88
783.922	656.83
784.67	728.57
785.418	664.01
786.166	714.22
786.914	561.51
787.661	620.96
788.409	616.86
789.157	602.51
789.904	599.44
790.652	691.68
791.399	645.56
792.147	643.51
792.894	669.13
793.641	602.51
794.388	5326.84
795.136	636.33
795.883	593.29
796.629	666.06
797.376	522.56
798.123	561.51
798.87	529.73
799.616	573.81
800.363	712.17
801.109	701.92
801.856	660.93
802.602	490.78
803.349	695.78
804.095	745.99
804.841	615.84
805.587	629.16
806.333	639.41
807.079	666.06
807.825	627.11
808.57	626.09
809.316	720.37
810.062	627.11
810.807	651.71
811.553	736.77
812.298	668.11
813.043	640.43
813.788	697.83
814.534	613.79
815.279	714.22
816.024	649.66
816.769	645.56
817.514	648.63
818.258	631.21
819.003	712.17
819.748	15519.53
820.492	623.01
821.237	4723.9
821.981	599.44
822.726	707.05
823.47	700.9
824.214	703.97
824.958	649.66
825.702	647.61
826.446	675.28
827.19	660.93
827.934	724.47
828.678	655.81
829.421	735.74
830.165	658.88
830.909	638.38
831.652	610.71
832.395	685.53
833.139	686.55
833.882	794.15
834.625	650.68
835.368	618.91
836.111	569.71
836.854	627.11
837.597	662.98
838.34	674.25
839.083	671.18
839.825	684.5
840.568	550.24
841.311	661.96
842.053	690.65
842.795	583.04
843.538	615.84
844.28	566.64
845.022	548.19
845.764	773.65
846.506	524.61
847.248	606.61
847.99	648.63
848.732	653.76
849.474	602.51
850.215	535.88
850.957	508.21
851.698	582.01
852.44	662.98
853.181	588.16
853.922	681.43
854.664	600.46
855.405	709.1
856.146	542.04
856.887	607.64
857.628	697.83
858.369	525.63
859.109	690.65
859.85	576.89
860.591	675.28
861.331	566.64
862.072	525.63
862.812	491.8
863.553	556.39
864.293	682.45
865.033	585.09
865.773	613.79
866.513	537.93
867.253	572.79
867.993	572.79
868.733	611.74
869.473	636.33
870.213	679.38
870.952	549.21
871.692	598.41
872.431	554.34
873.171	591.24
873.91	570.74
874.649	495.9
875.388	621.99
876.128	611.74
876.867	542.04
877.606	614.81
878.345	583.04
879.083	567.66
879.822	539.98
880.561	608.66
881.299	575.86
882.038	591.24
882.777	640.43
883.515	689.63
884.253	7898.69
884.992	604.56
885.73	589.19
886.468	593.29
887.206	718.32
887.944	641.46
888.682	657.86
889.42	610.71
890.157	633.26
890.895	547.16
891.633	1292.86
892.37	610.71
893.108	634.29
893.845	634.29
894.583	612.76
895.32	526.66
896.057	537.93
896.794	617.89
897.531	661.96
898.268	574.84
899.005	550.24
899.742	586.11
900.479	574.84
901.215	598.41
901.952	585.09
902.689	527.68
903.425	518.46
904.162	525.63
904.898	611.74
905.634	661.96
906.37	614.81
907.106	519.48
907.843	623.01
908.579	585.09
909.314	468.22
910.05	569.71
910.786	579.96
911.522	526.66
912.257	651.71
912.993	596.36
913.728	550.24
914.464	579.96
915.199	552.29
915.935	527.68
916.67	558.44
917.405	623.01
918.14	623.01
918.875	616.86
919.61	670.16
920.345	684.5
921.08	695.78
921.814	594.31
922.549	533.83
923.284	819.76
924.018	566.64
924.752	684.5
925.487	619.94
926.221	637.36
926.955	585.09
927.69	524.61
928.424	599.44
929.158	626.09
929.892	557.41
930.625	620.96
931.359	705
932.093	635.31
932.827	569.71
933.56	574.84
934.294	508.21
935.027	616.86
935.761	659.91
936.494	579.96
937.227	564.59
937.96	638.38
938.693	656.83
939.426	541.01
940.159	673.23
940.892	597.39
941.625	695.78
942.358	649.66
943.091	593.29
943.823	536.91
944.556	509.23
945.288	565.61
946.021	615.84
946.753	563.56
947.485	640.43
948.217	604.56
948.95	629.16
949.682	519.48
950.414	548.19
951.146	602.51
951.877	564.59
952.609	593.29
953.341	608.66
954.073	665.03
954.804	620.96
955.536	583.04
956.267	625.06
956.998	531.78
957.73	550.24
958.461	549.21
959.192	543.06
959.923	660.93
960.654	612.76
961.385	577.91
962.116	614.81
962.847	573.81
963.578	590.21
964.308	578.94
965.039	513.33
965.769	616.86
966.5	623.01
967.23	572.79
967.961	603.54
968.691	649.66
969.421	519.48
970.151	654.78
970.881	541.01
971.611	656.83
972.341	616.86
973.071	657.86
973.801	673.23
974.53	563.56
975.26	582.01
975.99	610.71
976.719	661.96
977.448	575.86
978.178	577.91
978.907	614.81
979.636	535.88
980.365	658.88
981.095	686.55
981.824	650.68
982.553	596.36
983.281	563.56
984.01	2.57
984.739	-28.22
985.468	-52.85
986.196	-77.48
986.925	826.93
987.653	595.34
988.382	712.17
989.11	618.91
989.838	650.68
990.566	717.3
991.295	576.89
992.023	677.33
992.751	696.8
993.478	588.16
994.206	650.68
994.934	606.61
995.662	-2.57
996.389	-49.77
997.117	131.84
997.845	76.44
