Data from SampleKW32_QEPB07591_00008.txt Node
Date: Thu Aug 22 15:28:32 EDT 2019
User: wcc
Spectrometer: QEPB0759
Trigger mode: 0
Integration Time (sec): 1.749000E0
Scans to average: 1
Electric dark correction enabled: true
Nonlinearity correction enabled: true
Boxcar width: 0
XAxis mode: Wavelengths
Number of Pixels in Spectrum: 1044
>>>>>Begin Spectral Data<<<<<
197.938	649.15
198.749	610.2
199.559	566.12
200.369	566.12
201.179	594.82
201.988	590.72
202.798	715.76
203.608	582.52
204.417	598.92
205.227	558.95
206.036	620.45
206.846	634.8
207.655	664.52
208.464	635.82
209.273	660.42
210.082	574.32
210.891	590.72
211.7	590.72
212.508	572.27
213.317	548.7
214.125	524.1
214.934	566.12
215.742	577.4
216.55	563.05
217.359	546.65
218.167	565.1
218.975	666.57
219.782	553.82
220.59	548.7
221.398	548.7
222.206	721.91
223.013	615.32
223.82	533.32
224.628	562.02
225.435	587.65
226.242	628.65
227.049	623.52
227.856	561
228.663	603.02
229.47	594.82
230.277	591.75
231.083	579.45
231.89	568.17
232.696	616.35
233.502	571.25
234.309	557.92
235.115	632.75
235.921	600.97
236.727	515.89
237.533	639.92
238.339	643
239.144	619.42
239.95	740.35
240.756	621.47
241.561	605.07
242.366	557.92
243.172	624.55
243.977	677.84
244.782	621.47
245.587	640.95
246.392	638.9
247.197	532.3
248.001	525.12
248.806	583.55
249.611	567.15
250.415	628.65
251.219	581.5
252.024	634.8
252.828	570.22
253.632	568.17
254.436	548.7
255.24	654.27
256.044	661.44
256.848	575.35
257.651	557.92
258.455	595.85
259.258	594.82
260.062	50978.88
260.865	652.22
261.668	621.47
262.471	553.82
263.274	628.65
264.077	539.47
264.88	594.82
265.683	539.47
266.486	583.55
267.288	662.47
268.091	533.32
268.893	589.7
269.696	612.25
270.498	603.02
271.3	605.07
272.102	680.92
272.904	587.65
273.706	596.87
274.508	599.95
275.309	619.42
276.111	616.35
276.913	532.3
277.714	512.82
278.515	564.07
279.317	654.27
280.118	524.1
280.919	608.15
281.72	582.52
282.521	645.05
283.322	549.72
284.122	625.57
284.923	622.5
285.724	594.82
286.524	578.42
287.325	708.59
288.125	530.25
288.925	585.6
289.725	593.8
290.525	685.02
291.325	603.02
292.125	614.3
292.925	651.2
293.724	538.45
294.524	520
295.324	544.6
296.123	598.92
296.922	604.05
297.722	868.42
298.521	616.35
299.32	710.63
300.119	512.82
300.918	617.37
301.716	714.73
302.515	579.45
303.314	663.49
304.112	578.42
304.911	693.21
305.709	584.57
306.507	661.44
307.306	602
308.104	599.95
308.902	609.17
309.7	591.75
310.498	646.07
311.295	516.92
312.093	650.17
312.891	675.79
313.688	657.34
314.485	600.97
315.283	723.96
316.08	635.82
316.877	589.7
317.674	592.77
318.471	507.69
319.268	584.57
320.065	623.52
320.862	635.82
321.658	584.57
322.455	653.25
323.251	561
324.047	552.8
324.844	714.73
325.64	537.42
326.436	598.92
327.232	596.87
328.028	585.6
328.824	553.82
329.62	645.05
330.415	735.23
331.211	619.42
332.006	592.77
332.802	663.49
333.597	587.65
334.392	660.42
335.187	633.77
335.982	570.22
336.777	647.1
337.572	597.9
338.367	631.72
339.162	662.47
339.956	584.57
340.751	606.1
341.545	652.22
342.34	649.15
343.134	550.75
343.928	670.67
344.722	659.39
345.516	566.12
346.31	566.12
347.104	621.47
347.898	600.97
348.691	606.1
349.485	531.27
350.278	643
351.072	709.61
351.865	7246.82
352.658	617.37
353.452	687.07
354.245	562.02
355.038	643
355.83	580.47
356.623	564.07
357.416	570.22
358.209	593.8
359.001	567.15
359.794	620.45
360.586	638.9
361.378	657.34
362.17	574.32
362.963	541.52
363.755	693.21
364.546	529.22
365.338	632.75
366.13	640.95
366.922	628.65
367.713	588.67
368.505	594.82
369.296	577.4
370.088	494.37
370.879	541.52
371.67	608.15
372.461	547.67
373.252	593.8
374.043	681.94
374.834	499.49
375.625	622.5
376.415	664.52
377.206	625.57
377.996	574.32
378.787	711.66
379.577	522.05
380.367	496.42
381.157	618.4
381.947	585.6
382.737	630.7
383.527	637.87
384.317	694.24
385.107	598.92
385.896	664.52
386.686	627.62
387.475	640.95
388.265	594.82
389.054	845.88
389.843	583.55
390.632	614.3
391.421	631.72
392.21	688.09
392.999	566.12
393.788	637.87
394.576	648.12
395.365	629.67
396.154	612.25
396.942	597.9
397.73	633.77
398.519	641.97
399.307	654.27
400.095	641.97
400.883	723.96
401.671	644.02
402.459	663.49
403.246	595.85
404.034	624.55
404.822	621.47
405.609	707.56
406.396	743.43
407.184	574.32
407.971	682.97
408.758	682.97
409.545	522.05
410.332	700.39
411.119	714.73
411.906	586.62
412.693	683.99
413.479	696.29
414.266	627.62
415.052	698.34
415.839	671.69
416.625	651.2
417.411	740.35
418.197	755.72
418.983	786.46
419.769	751.62
420.555	683.99
421.341	681.94
422.127	697.31
422.912	679.89
423.698	760.85
424.483	666.57
425.269	644.02
426.054	597.9
426.839	715.76
427.624	662.47
428.409	695.26
429.194	704.49
429.979	752.65
430.764	738.3
431.549	715.76
432.333	708.59
433.118	635.82
433.902	768.02
434.687	695.26
435.471	746.5
436.255	755.72
437.039	722.93
437.823	746.5
438.607	739.33
439.391	755.72
440.175	766.99
440.958	744.45
441.742	749.57
442.526	692.19
443.309	787.49
444.092	854.08
444.876	784.41
445.659	776.21
446.442	864.32
447.225	846.91
448.008	881.74
448.791	872.52
449.573	987.24
450.356	935.01
451.139	890.96
451.921	798.76
452.704	875.59
453.486	838.71
454.268	891.98
455.05	867.4
455.833	856.13
456.615	912.47
457.396	876.62
458.178	920.67
458.96	815.15
459.742	873.54
460.523	857.15
461.305	854.08
462.086	922.71
462.868	1002.6
463.649	898.13
464.43	846.91
465.211	992.36
465.992	856.13
466.773	1040.5
467.554	949.35
468.335	938.08
469.115	936.03
469.896	827.44
470.676	795.68
471.457	911.45
472.237	915.54
473.018	902.23
473.798	881.74
474.578	896.08
475.358	822.32
476.138	757.77
476.918	772.12
477.697	786.46
478.477	888.91
479.257	830.52
480.036	766.99
480.816	741.38
481.595	830.52
482.374	790.56
483.153	852.03
483.932	796.71
484.711	772.12
485.49	775.19
486.269	707.56
487.048	664.52
487.827	788.51
488.605	714.73
489.384	687.07
490.162	762.89
490.941	816.17
491.719	703.46
492.497	718.83
493.275	701.41
494.053	730.1
494.831	667.59
495.609	707.56
496.387	708.59
497.164	723.96
497.942	695.26
498.72	658.37
499.497	676.82
500.274	588.67
501.052	654.27
501.829	694.24
502.606	609.17
503.383	648.12
504.16	675.79
504.937	655.3
505.714	580.47
506.49	721.91
507.267	542.55
508.043	647.1
508.82	704.49
509.596	561
510.373	576.37
511.149	557.92
511.925	582.52
512.701	614.3
513.477	680.92
514.253	597.9
515.029	586.62
515.804	605.07
516.58	686.04
517.356	583.55
518.131	691.16
518.906	539.47
519.682	600.97
520.457	598.92
521.232	623.52
522.007	623.52
522.782	546.65
523.557	533.32
524.332	535.37
525.107	665.54
525.881	554.85
526.656	502.57
527.43	545.62
528.205	574.32
528.979	526.15
529.753	576.37
530.527	640.95
531.302	566.12
532.076	607.12
532.849	576.37
533.623	592.77
534.397	538.45
535.171	607.12
535.944	647.1
536.718	526.15
537.491	710.63
538.265	498.47
539.038	619.42
539.811	610.2
540.584	580.47
541.357	580.47
542.13	686.04
542.903	703.46
543.676	605.07
544.449	592.77
545.221	627.62
545.994	587.65
546.766	597.9
547.539	555.87
548.311	638.9
549.083	611.22
549.855	465.66
550.627	656.32
551.399	594.82
552.171	688.09
552.943	628.65
553.715	553.82
554.486	595.85
555.258	561
556.029	528.2
556.801	615.32
557.572	535.37
558.343	559.97
559.114	651.2
559.886	640.95
560.657	589.7
561.427	504.62
562.198	538.45
562.969	620.45
563.74	582.52
564.51	555.87
565.281	697.31
566.051	555.87
566.822	571.25
567.592	573.3
568.362	578.42
569.132	565.1
569.902	754.7
570.672	529.22
571.442	618.4
572.212	617.37
572.982	581.5
573.751	623.52
574.521	586.62
575.29	708.59
576.06	639.92
576.829	597.9
577.598	577.4
578.367	536.4
579.136	564.07
579.905	641.97
580.674	665.54
581.443	631.72
582.212	581.5
582.981	650.17
583.749	557.92
584.518	587.65
585.286	692.19
586.054	732.15
586.823	620.45
587.591	565.1
588.359	643
589.127	608.15
589.895	668.62
590.663	696.29
591.431	625.57
592.198	660.42
592.966	668.62
593.734	706.54
594.501	596.87
595.268	631.72
596.036	742.4
596.803	616.35
597.57	660.42
598.337	660.42
599.104	679.89
599.871	781.34
600.638	817.2
601.405	865.35
602.171	806.95
602.938	1039.47
603.704	851.01
604.471	919.64
605.237	1098.87
606.004	1029.23
606.77	1128.56
607.536	1194.08
608.302	1217.63
609.068	1230.94
609.834	1210.46
610.599	1298.49
611.365	1222.75
612.131	1299.52
612.896	1408
613.662	1442.79
614.427	1418.23
615.193	1394.69
615.958	1441.76
616.723	1465.3
617.488	1340.46
618.253	1472.46
619.018	1472.46
619.783	1440.74
620.548	1545.1
621.312	1483.71
622.077	1437.67
622.842	1516.45
623.606	1618.75
624.37	1488.83
625.135	1554.3
625.899	1523.61
626.663	1477.58
627.427	1521.57
628.191	1516.45
628.955	1561.46
629.719	1463.25
630.483	1495.99
631.246	1385.48
632.01	1428.46
632.773	1518.5
633.537	1385.48
634.3	1432.56
635.063	1394.69
635.827	1323.06
636.59	1358.88
637.353	1435.63
638.116	1429.49
638.879	1300.54
639.641	1474.51
640.404	1398.79
641.167	1360.92
641.929	1386.51
642.692	1268.81
643.454	1301.56
644.216	1372.18
644.979	1350.69
645.741	1355.81
646.503	1388.55
647.265	1343.53
648.027	1399.81
648.789	1270.86
649.551	1311.8
650.312	1286.21
651.074	1251.41
651.835	1214.56
652.597	1269.83
653.358	1311.8
654.12	1258.57
654.881	1222.75
655.642	1250.39
656.403	1209.44
657.164	1246.29
657.925	1221.72
658.686	1278.02
659.447	1171.56
660.207	1180.77
660.968	1248.34
661.728	1315.89
662.489	1237.08
663.249	1255.5
664.01	1201.25
664.77	1295.42
665.53	1293.38
666.29	1192.04
667.05	1291.33
667.81	1221.72
668.57	1216.6
669.329	1221.72
670.089	1217.63
670.849	1248.34
671.608	1293.38
672.368	1195.11
673.127	1302.59
673.886	1208.42
674.646	1166.44
675.405	1242.2
676.164	1285.19
676.923	1284.16
677.682	1325.1
678.44	1229.91
679.199	1156.2
679.958	1426.42
680.717	1231.96
681.475	1189.99
682.233	1223.77
682.992	1155.18
683.75	1220.7
684.508	1257.55
685.266	1159.27
686.024	1222.75
686.782	1156.2
687.54	1212.51
688.298	1198.18
689.056	1235.03
689.814	1100.91
690.571	1167.46
691.329	1121.39
692.086	1108.08
692.843	1077.36
693.601	1134.7
694.358	1148.01
695.115	1018.99
695.872	1025.14
696.629	1003.63
697.386	1124.46
698.143	1128.56
698.9	988.27
699.656	992.36
700.413	1012.85
701.169	1087.6
701.926	1002.6
702.682	1042.54
703.438	1000.56
704.195	1122.42
704.951	941.15
705.707	947.3
706.463	941.15
707.219	972.9
707.974	951.39
708.73	902.23
709.486	959.59
710.241	990.31
710.997	978.02
711.752	1014.89
712.508	983.15
713.263	973.93
714.018	975.98
714.773	972.9
715.528	1090.67
716.283	995.44
717.038	883.79
717.793	944.22
718.548	914.52
719.303	902.23
720.057	840.76
720.812	830.52
721.566	793.63
722.321	832.57
723.075	820.27
723.829	857.15
724.583	786.46
725.337	802.85
726.091	908.37
726.845	848.96
727.599	741.38
728.353	843.84
729.106	752.65
729.86	887.89
730.614	734.2
731.367	6456.03
732.12	800.81
732.874	751.62
733.627	815.15
734.38	834.61
735.133	810.03
735.886	765.97
736.639	735.23
737.392	775.19
738.145	724.98
738.897	844.86
739.65	774.17
740.403	766.99
741.155	794.66
741.907	777.24
742.66	843.84
743.412	629.67
744.164	753.67
744.916	614.3
745.668	674.77
746.42	737.28
747.172	655.3
747.924	621.47
748.676	538.45
749.427	596.87
750.179	636.85
750.93	656.32
751.682	533.32
752.433	667.59
753.184	695.26
753.935	585.6
754.687	541.52
755.438	641.97
756.189	608.15
756.939	558.95
757.69	552.8
758.441	648.12
759.192	608.15
759.942	656.32
760.693	637.87
761.443	619.42
762.194	565.1
762.944	552.8
763.694	656.32
764.444	570.22
765.194	646.07
765.944	629.67
766.694	647.1
767.444	681.94
768.194	633.77
768.943	557.92
769.693	660.42
770.443	622.5
771.192	660.42
771.941	489.24
772.691	650.17
773.44	592.77
774.189	658.37
774.938	610.2
775.687	585.6
776.436	627.62
777.185	628.65
777.934	554.85
778.683	611.22
779.431	600.97
780.18	655.3
780.928	602
781.677	598.92
782.425	644.02
783.173	656.32
783.922	640.95
784.67	724.98
785.418	656.32
786.166	703.46
786.914	558.95
787.661	620.45
788.409	619.42
789.157	582.52
789.904	602
790.652	667.59
791.399	640.95
792.147	625.57
792.894	670.67
793.641	616.35
794.388	5365.89
795.136	648.12
795.883	580.47
796.629	669.64
797.376	534.35
798.123	569.2
798.87	515.89
799.616	573.3
800.363	708.59
801.109	715.76
801.856	658.37
802.602	486.16
803.349	705.51
804.095	739.33
804.841	613.27
805.587	609.17
806.333	630.7
807.079	660.42
807.825	635.82
808.57	611.22
809.316	711.66
810.062	626.6
810.807	652.22
811.553	739.33
812.298	678.87
813.043	637.87
813.788	687.07
814.534	626.6
815.279	696.29
816.024	641.97
816.769	633.77
817.514	660.42
818.258	629.67
819.003	714.73
819.748	15900.71
820.492	627.62
821.237	4728.48
821.981	590.72
822.726	704.49
823.47	706.54
824.214	711.66
824.958	636.85
825.702	651.2
826.446	671.69
827.19	668.62
827.934	718.83
828.678	668.62
829.421	724.98
830.165	660.42
830.909	640.95
831.652	614.3
832.395	693.21
833.139	685.02
833.882	791.58
834.625	637.87
835.368	641.97
836.111	579.45
836.854	621.47
837.597	664.52
838.34	677.84
839.083	664.52
839.825	696.29
840.568	545.62
841.311	644.02
842.053	692.19
842.795	570.22
843.538	612.25
844.28	573.3
845.022	544.6
845.764	778.26
846.506	521.02
847.248	598.92
847.99	662.47
848.732	640.95
849.474	595.85
850.215	534.35
850.957	508.72
851.698	556.9
852.44	658.37
853.181	593.8
853.922	703.46
854.664	611.22
855.405	716.78
856.146	525.12
856.887	604.05
857.628	701.41
858.369	532.3
859.109	679.89
859.85	579.45
860.591	675.79
861.331	566.12
862.072	520
862.812	495.39
863.553	573.3
864.293	682.97
865.033	577.4
865.773	622.5
866.513	526.15
867.253	537.42
867.993	566.12
868.733	614.3
869.473	626.6
870.213	678.87
870.952	535.37
871.692	581.5
872.431	548.7
873.171	581.5
873.91	551.77
874.649	495.39
875.388	605.07
876.128	607.12
876.867	526.15
877.606	603.02
878.345	575.35
879.083	562.02
879.822	531.27
880.561	617.37
881.299	586.62
882.038	583.55
882.777	657.34
883.515	689.11
884.253	7900.21
884.992	612.25
885.73	587.65
886.468	595.85
887.206	731.13
887.944	649.15
888.682	661.44
889.42	615.32
890.157	623.52
890.895	555.87
891.633	1286.21
892.37	604.05
893.108	634.8
893.845	615.32
894.583	616.35
895.32	520
896.057	541.52
896.794	614.3
897.531	644.02
898.268	593.8
899.005	551.77
899.742	593.8
900.479	583.55
901.215	599.95
901.952	582.52
902.689	528.2
903.425	495.39
904.162	523.07
904.898	608.15
905.634	669.64
906.37	611.22
907.106	510.77
907.843	613.27
908.579	579.45
909.314	469.76
910.05	582.52
910.786	586.62
911.522	513.84
912.257	644.02
912.993	602
913.728	566.12
914.464	580.47
915.199	555.87
915.935	526.15
916.67	557.92
917.405	637.87
918.14	635.82
918.875	614.3
919.61	673.74
920.345	677.84
921.08	698.34
921.814	594.82
922.549	539.47
923.284	811.05
924.018	562.02
924.752	687.07
925.487	610.2
926.221	622.5
926.955	600.97
927.69	543.57
928.424	598.92
929.158	624.55
929.892	566.12
930.625	614.3
931.359	704.49
932.093	629.67
932.827	562.02
933.56	581.5
934.294	516.92
935.027	623.52
935.761	647.1
936.494	580.47
937.227	563.05
937.96	649.15
938.693	658.37
939.426	545.62
940.159	670.67
940.892	599.95
941.625	693.21
942.358	667.59
943.091	593.8
943.823	528.2
944.556	507.69
945.288	574.32
946.021	631.72
946.753	563.05
947.485	647.1
948.217	598.92
948.95	621.47
949.682	514.87
950.414	539.47
951.146	596.87
951.877	568.17
952.609	597.9
953.341	619.42
954.073	689.11
954.804	616.35
955.536	582.52
956.267	630.7
956.998	550.75
957.73	550.75
958.461	551.77
959.192	534.35
959.923	670.67
960.654	609.17
961.385	569.2
962.116	604.05
962.847	563.05
963.578	607.12
964.308	578.42
965.039	505.64
965.769	607.12
966.5	622.5
967.23	569.2
967.961	597.9
968.691	647.1
969.421	499.49
970.151	643
970.881	527.17
971.611	658.37
972.341	594.82
973.071	655.3
973.801	675.79
974.53	563.05
975.26	564.07
975.99	603.02
976.719	659.39
977.448	572.27
978.178	581.5
978.907	624.55
979.636	532.3
980.365	658.37
981.095	688.09
981.824	652.22
982.553	595.85
983.281	558.95
984.01	4.1
984.739	-40.02
985.468	-51.31
986.196	-74.91
986.925	829.49
987.653	597.9
988.382	700.39
989.11	631.72
989.838	647.1
990.566	708.59
991.295	570.22
992.023	666.57
992.751	685.02
993.478	578.42
994.206	641.97
994.934	594.82
995.662	-14.37
996.389	-45.15
997.117	139.53
997.845	82.08
