Data from SampleKW32_Bg_QEPB07591_00003.txt Node
Date: Thu Aug 22 15:29:14 EDT 2019
User: wcc
Spectrometer: QEPB0759
Trigger mode: 0
Integration Time (sec): 1.749000E0
Scans to average: 1
Electric dark correction enabled: true
Nonlinearity correction enabled: true
Boxcar width: 0
XAxis mode: Wavelengths
Number of Pixels in Spectrum: 1044
>>>>>Begin Spectral Data<<<<<
197.938	630.57
198.749	607
199.559	567.02
200.369	568.05
201.179	590.6
201.988	578.3
202.798	705.38
203.608	582.4
204.417	583.42
205.227	537.29
206.036	630.57
206.846	625.45
207.655	657.22
208.464	631.59
209.273	665.42
210.082	557.8
210.891	572.15
211.7	586.5
212.508	577.27
213.317	555.75
214.125	522.94
214.934	571.12
215.742	573.17
216.55	544.47
217.359	538.32
218.167	568.05
218.975	641.84
219.782	552.67
220.59	535.24
221.398	523.97
222.206	703.33
223.013	605.97
223.82	545.49
224.628	558.82
225.435	577.27
226.242	640.82
227.049	627.49
227.856	562.92
228.663	613.15
229.47	586.5
230.277	587.52
231.083	573.17
231.89	554.72
232.696	622.37
233.502	567.02
234.309	555.75
235.115	621.35
235.921	591.62
236.727	498.34
237.533	655.17
238.339	615.2
239.144	614.17
239.95	735.1
240.756	626.47
241.561	619.3
242.366	559.85
243.172	621.35
243.977	671.56
244.782	630.57
245.587	630.57
246.392	645.94
247.197	537.29
248.001	530.12
248.806	567.02
249.611	569.07
250.415	618.27
251.219	600.85
252.024	619.3
252.828	551.65
253.632	566
254.436	547.54
255.24	668.49
256.044	653.12
256.848	568.05
257.651	536.27
258.455	588.55
259.258	592.65
260.062	50143.76
260.865	645.94
261.668	618.27
262.471	547.54
263.274	635.69
264.077	544.47
264.88	594.7
265.683	539.34
266.486	575.22
267.288	657.22
268.091	534.22
268.893	587.52
269.696	602.9
270.498	598.8
271.3	594.7
272.102	672.59
272.904	597.77
273.706	581.37
274.508	589.57
275.309	621.35
276.111	611.1
276.913	533.19
277.714	512.69
278.515	557.8
279.317	656.19
280.118	532.17
280.919	600.85
281.72	582.4
282.521	636.72
283.322	551.65
284.122	628.52
284.923	633.64
285.724	590.6
286.524	587.52
287.325	701.28
288.125	529.09
288.925	578.3
289.725	598.8
290.525	680.79
291.325	602.9
292.125	624.42
292.925	638.77
293.724	538.32
294.524	495.26
295.324	548.57
296.123	597.77
296.922	578.3
297.722	863.17
298.521	609.05
299.32	708.46
300.119	521.92
300.918	609.05
301.716	729.98
302.515	586.5
303.314	664.39
304.112	578.3
304.911	706.41
305.709	586.5
306.507	653.12
307.306	603.92
308.104	580.35
308.902	601.87
309.7	592.65
310.498	649.02
311.295	512.69
312.093	647.99
312.891	688.99
313.688	639.79
314.485	596.75
315.283	738.17
316.08	625.45
316.877	586.5
317.674	596.75
318.471	500.39
319.268	560.87
320.065	623.4
320.862	640.82
321.658	588.55
322.455	655.17
323.251	556.77
324.047	544.47
324.844	703.33
325.64	522.94
326.436	599.82
327.232	572.15
328.028	591.62
328.824	539.34
329.62	644.92
330.415	720.75
331.211	629.54
332.006	591.62
332.802	663.37
333.597	585.47
334.392	652.09
335.187	631.59
335.982	562.92
336.777	631.59
337.572	574.2
338.367	618.27
339.162	663.37
339.956	590.6
340.751	605.97
341.545	636.72
342.34	644.92
343.134	559.85
343.928	677.71
344.722	665.42
345.516	553.7
346.31	558.82
347.104	607
347.898	599.82
348.691	595.72
349.485	519.87
350.278	641.84
351.072	719.73
351.865	7307.32
352.658	621.35
353.452	684.89
354.245	576.25
355.038	636.72
355.83	582.4
356.623	573.17
357.416	580.35
358.209	578.3
359.001	571.12
359.794	613.15
360.586	621.35
361.378	664.39
362.17	574.2
362.963	539.34
363.755	676.69
364.546	524.99
365.338	629.54
366.13	644.92
366.922	617.25
367.713	589.57
368.505	580.35
369.296	577.27
370.088	490.14
370.879	550.62
371.67	595.72
372.461	548.57
373.252	586.5
374.043	690.01
374.834	485.01
375.625	637.74
376.415	652.09
377.206	621.35
377.996	578.3
378.787	699.23
379.577	517.82
380.367	479.89
381.157	605.97
381.947	576.25
382.737	620.32
383.527	625.45
384.317	688.99
385.107	591.62
385.896	654.14
386.686	619.3
387.475	622.37
388.265	568.05
389.054	830.39
389.843	580.35
390.632	596.75
391.421	614.17
392.21	667.47
392.999	546.52
393.788	608.02
394.576	629.54
395.365	614.17
396.154	589.57
396.942	570.1
397.73	608.02
398.519	614.17
399.307	618.27
400.095	599.82
400.883	688.99
401.671	600.85
402.459	620.32
403.246	553.7
404.034	575.22
404.822	582.4
405.609	656.19
406.396	683.86
407.184	533.19
407.971	640.82
408.758	628.52
409.545	469.63
410.332	645.94
411.119	653.12
411.906	537.29
412.693	628.52
413.479	644.92
414.266	554.72
415.052	634.67
415.839	602.9
416.625	562.92
417.411	656.19
418.197	663.37
418.983	698.21
419.769	645.94
420.555	586.5
421.341	603.92
422.127	607
422.912	588.55
423.698	677.71
424.483	577.27
425.269	555.75
426.054	507.57
426.839	616.22
427.624	557.8
428.409	581.37
429.194	590.6
429.979	643.89
430.764	623.4
431.549	609.05
432.333	594.7
433.118	511.67
433.902	622.37
434.687	554.72
435.471	625.45
436.255	610.07
437.039	583.42
437.823	578.3
438.607	578.3
439.391	608.02
440.175	605.97
440.958	576.25
441.742	590.6
442.526	523.97
443.309	615.2
444.092	679.76
444.876	607
445.659	591.62
446.442	680.79
447.225	647.99
448.008	676.69
448.791	652.09
449.573	731
450.356	672.59
451.139	641.84
451.921	564.97
452.704	633.64
453.486	602.9
454.268	640.82
455.05	623.4
455.833	569.07
456.615	630.57
457.396	597.77
458.178	635.69
458.96	521.92
459.742	601.87
460.523	571.12
461.305	569.07
462.086	622.37
462.868	714.61
463.649	610.07
464.43	572.15
465.211	693.09
465.992	553.7
466.773	713.58
467.554	596.75
468.335	616.22
469.115	617.25
469.896	533.19
470.676	485.01
471.457	604.95
472.237	626.47
473.018	616.22
473.798	599.82
474.578	628.52
475.358	583.42
476.138	512.69
476.918	524.99
477.697	564.97
478.477	672.59
479.257	610.07
480.036	560.87
480.816	535.24
481.595	609.05
482.374	586.5
483.153	663.37
483.932	617.25
484.711	586.5
485.49	602.9
486.269	564.97
487.048	512.69
487.827	650.04
488.605	578.3
489.384	553.7
490.162	620.32
490.941	668.49
491.719	555.75
492.497	588.55
493.275	563.95
494.053	625.45
494.831	555.75
495.609	605.97
496.387	612.12
497.164	621.35
497.942	597.77
498.72	560.87
499.497	598.8
500.274	507.57
501.052	579.32
501.829	635.69
502.606	551.65
503.383	612.12
504.16	618.27
504.937	629.54
505.714	533.19
506.49	665.42
507.267	519.87
508.043	598.8
508.82	670.54
509.596	536.27
510.373	551.65
511.149	528.07
511.925	558.82
512.701	588.55
513.477	688.99
514.253	590.6
515.029	567.02
515.804	592.65
516.58	678.74
517.356	581.37
518.131	687.96
518.906	542.42
519.682	613.15
520.457	589.57
521.232	622.37
522.007	618.27
522.782	546.52
523.557	536.27
524.332	527.04
525.107	681.81
525.881	559.85
526.656	512.69
527.43	539.34
528.205	574.2
528.979	534.22
529.753	564.97
530.527	642.87
531.302	545.49
532.076	600.85
532.849	569.07
533.623	583.42
534.397	541.39
535.171	603.92
535.944	634.67
536.718	518.84
537.491	708.46
538.265	491.16
539.038	618.27
539.811	615.2
540.584	575.22
541.357	570.1
542.13	705.38
542.903	690.01
543.676	602.9
544.449	598.8
545.221	621.35
545.994	570.1
546.766	592.65
547.539	555.75
548.311	626.47
549.083	616.22
549.855	460.41
550.627	649.02
551.399	609.05
552.171	697.18
552.943	621.35
553.715	544.47
554.486	579.32
555.258	532.17
556.029	534.22
556.801	632.62
557.572	518.84
558.343	568.05
559.114	649.02
559.886	637.74
560.657	577.27
561.427	506.54
562.198	542.42
562.969	610.07
563.74	584.45
564.51	561.9
565.281	683.86
566.051	553.7
566.822	545.49
567.592	586.5
568.362	577.27
569.132	574.2
569.902	745.35
570.672	540.37
571.442	623.4
572.212	621.35
572.982	566
573.751	610.07
574.521	586.5
575.29	696.16
576.06	627.49
576.829	589.57
577.598	567.02
578.367	533.19
579.136	549.6
579.905	618.27
580.674	660.29
581.443	641.84
582.212	566
582.981	635.69
583.749	573.17
584.518	579.32
585.286	681.81
586.054	722.8
586.823	625.45
587.591	543.44
588.359	655.17
589.127	603.92
589.895	671.56
590.663	681.81
591.431	643.89
592.198	643.89
592.966	634.67
593.734	673.61
594.501	572.15
595.268	614.17
596.036	702.31
596.803	558.82
597.57	570.1
598.337	574.2
599.104	560.87
599.871	630.57
600.638	635.69
601.405	680.79
602.171	555.75
602.938	744.32
603.704	530.12
604.471	569.07
605.237	686.94
606.004	587.52
606.77	651.07
607.536	686.94
608.302	663.37
609.068	646.97
609.834	609.05
610.599	656.19
611.365	536.27
612.131	615.2
612.896	628.52
613.662	715.63
614.427	634.67
615.193	601.87
615.958	616.22
616.723	642.87
617.488	495.26
618.253	609.05
619.018	590.6
619.783	566
620.548	670.54
621.312	590.6
622.077	560.87
622.842	631.59
623.606	742.27
624.37	595.72
625.135	651.07
625.899	641.84
626.663	583.42
627.427	644.92
628.191	627.49
628.955	696.16
629.719	595.72
630.483	608.02
631.246	512.69
632.01	583.42
632.773	686.94
633.537	562.92
634.3	588.55
635.063	570.1
635.827	514.74
636.59	566
637.353	636.72
638.116	655.17
638.879	524.99
639.641	703.33
640.404	634.67
641.167	597.77
641.929	657.22
642.692	537.29
643.454	566
644.216	655.17
644.979	653.12
645.741	624.42
646.503	688.99
647.265	657.22
648.027	699.23
648.789	550.62
649.551	626.47
650.312	598.8
651.074	588.55
651.835	562.92
652.597	624.42
653.358	636.72
654.12	609.05
654.881	588.55
655.642	622.37
656.403	571.12
657.164	642.87
657.925	596.75
658.686	651.07
659.447	542.42
660.207	558.82
660.968	629.54
661.728	685.91
662.489	624.42
663.249	628.52
664.01	579.32
664.77	650.04
665.53	645.94
666.29	557.8
667.05	639.79
667.81	579.32
668.57	569.07
669.329	581.37
670.089	580.35
670.849	622.37
671.608	646.97
672.368	547.54
673.127	639.79
673.886	563.95
674.646	526.02
675.405	615.2
676.164	640.82
676.923	631.59
677.682	715.63
678.44	612.12
679.199	547.54
679.958	810.92
680.717	611.1
681.475	545.49
682.233	578.3
682.992	510.64
683.75	582.4
684.508	634.67
685.266	540.37
686.024	649.02
686.782	583.42
687.54	645.94
688.298	642.87
689.056	690.01
689.814	520.89
690.571	638.77
691.329	604.95
692.086	582.4
692.843	572.15
693.601	631.59
694.358	659.27
695.115	553.7
695.872	563.95
696.629	530.12
697.386	671.56
698.143	695.14
698.9	542.42
699.656	548.57
700.413	585.47
701.169	642.87
701.926	575.22
702.682	603.92
703.438	571.12
704.195	704.36
704.951	526.02
705.707	531.14
706.463	535.24
707.219	563.95
707.974	553.7
708.73	501.41
709.486	560.87
710.241	584.45
710.997	568.05
711.752	605.97
712.508	600.85
713.263	578.3
714.018	604.95
714.773	592.65
715.528	713.58
716.283	651.07
717.038	555.75
717.793	608.02
718.548	575.22
719.303	621.35
720.057	559.85
720.812	566
721.566	521.92
722.321	588.55
723.075	581.37
723.829	616.22
724.583	566
725.337	590.6
726.091	660.29
726.845	625.45
727.599	513.72
728.353	607
729.106	548.57
729.86	669.52
730.614	528.07
731.367	6394.16
732.12	593.67
732.874	549.6
733.627	612.12
734.38	636.72
735.133	601.87
735.886	576.25
736.639	559.85
737.392	614.17
738.145	558.82
738.897	674.64
739.65	612.12
740.403	613.15
741.155	618.27
741.907	622.37
742.66	691.04
743.412	499.36
744.164	629.54
744.916	534.22
745.668	604.95
746.42	688.99
747.172	610.07
747.924	599.82
748.676	530.12
749.427	559.85
750.179	622.37
750.93	651.07
751.682	523.97
752.433	653.12
753.184	691.04
753.935	554.72
754.687	540.37
755.438	623.4
756.189	596.75
756.939	551.65
757.69	541.39
758.441	645.94
759.192	598.8
759.942	641.84
760.693	638.77
761.443	609.05
762.194	557.8
762.944	536.27
763.694	629.54
764.444	576.25
765.194	637.74
765.944	633.64
766.694	647.99
767.444	672.59
768.194	646.97
768.943	536.27
769.693	659.27
770.443	625.45
771.192	657.22
771.941	495.26
772.691	635.69
773.44	594.7
774.189	659.27
774.938	602.9
775.687	589.57
776.436	614.17
777.185	638.77
777.934	551.65
778.683	604.95
779.431	592.65
780.18	655.17
780.928	597.77
781.677	619.3
782.425	622.37
783.173	637.74
783.922	650.04
784.67	707.43
785.418	670.54
786.166	705.38
786.914	554.72
787.661	626.47
788.409	591.62
789.157	599.82
789.904	596.75
790.652	670.54
791.399	644.92
792.147	621.35
792.894	655.17
793.641	595.72
794.388	5262.29
795.136	643.89
795.883	581.37
796.629	666.44
797.376	523.97
798.123	559.85
798.87	528.07
799.616	567.02
800.363	708.46
801.109	709.48
801.856	643.89
802.602	495.26
803.349	696.16
804.095	731
804.841	614.17
805.587	629.54
806.333	628.52
807.079	658.24
807.825	628.52
808.57	621.35
809.316	723.83
810.062	616.22
810.807	657.22
811.553	744.32
812.298	661.32
813.043	633.64
813.788	701.28
814.534	613.15
815.279	707.43
816.024	642.87
816.769	614.17
817.514	661.32
818.258	626.47
819.003	709.48
819.748	15557.88
820.492	622.37
821.237	4702.96
821.981	592.65
822.726	692.06
823.47	714.61
824.214	690.01
824.958	639.79
825.702	639.79
826.446	663.37
827.19	664.39
827.934	724.85
828.678	659.27
829.421	725.88
830.165	656.19
830.909	642.87
831.652	621.35
832.395	691.04
833.139	690.01
833.882	798.63
834.625	629.54
835.368	614.17
836.111	560.87
836.854	626.47
837.597	653.12
838.34	665.42
839.083	654.14
839.825	693.09
840.568	548.57
841.311	651.07
842.053	699.23
842.795	563.95
843.538	637.74
844.28	560.87
845.022	534.22
845.764	760.72
846.506	524.99
847.248	604.95
847.99	635.69
848.732	646.97
849.474	590.6
850.215	526.02
850.957	513.72
851.698	562.92
852.44	657.22
853.181	584.45
853.922	695.14
854.664	604.95
855.405	703.33
856.146	533.19
856.887	591.62
857.628	686.94
858.369	508.59
859.109	678.74
859.85	575.22
860.591	666.44
861.331	541.39
862.072	516.79
862.812	490.14
863.553	553.7
864.293	686.94
865.033	586.5
865.773	621.35
866.513	530.12
867.253	553.7
867.993	561.9
868.733	595.72
869.473	615.2
870.213	673.61
870.952	532.17
871.692	591.62
872.431	563.95
873.171	583.42
873.91	566
874.649	501.41
875.388	601.87
876.128	584.45
876.867	527.04
877.606	597.77
878.345	586.5
879.083	548.57
879.822	538.32
880.561	609.05
881.299	583.42
882.038	572.15
882.777	654.14
883.515	697.18
884.253	7909.16
884.992	609.05
885.73	573.17
886.468	594.7
887.206	724.85
887.944	628.52
888.682	655.17
889.42	598.8
890.157	618.27
890.895	552.67
891.633	1267.66
892.37	595.72
893.108	628.52
893.845	608.02
894.583	609.05
895.32	512.69
896.057	540.37
896.794	604.95
897.531	652.09
898.268	592.65
899.005	552.67
899.742	584.45
900.479	567.02
901.215	589.57
901.952	564.97
902.689	524.99
903.425	491.16
904.162	527.04
904.898	600.85
905.634	685.91
906.37	615.2
907.106	520.89
907.843	614.17
908.579	567.02
909.314	462.46
910.05	582.4
910.786	586.5
911.522	507.57
912.257	629.54
912.993	587.52
913.728	553.7
914.464	572.15
915.199	558.82
915.935	517.82
916.67	562.92
917.405	614.17
918.14	610.07
918.875	616.22
919.61	659.27
920.345	681.81
921.08	687.96
921.814	590.6
922.549	543.44
923.284	814
924.018	570.1
924.752	672.59
925.487	611.1
926.221	627.49
926.955	581.37
927.69	526.02
928.424	591.62
929.158	625.45
929.892	556.77
930.625	618.27
931.359	716.66
932.093	636.72
932.827	557.8
933.56	564.97
934.294	503.46
935.027	607
935.761	637.74
936.494	560.87
937.227	553.7
937.96	640.82
938.693	638.77
939.426	543.44
940.159	660.29
940.892	600.85
941.625	685.91
942.358	660.29
943.091	589.57
943.823	519.87
944.556	510.64
945.288	573.17
946.021	626.47
946.753	564.97
947.485	630.57
948.217	598.8
948.95	607
949.682	523.97
950.414	546.52
951.146	603.92
951.877	551.65
952.609	591.62
953.341	609.05
954.073	667.47
954.804	616.22
955.536	578.3
956.267	629.54
956.998	550.62
957.73	544.47
958.461	542.42
959.192	515.77
959.923	672.59
960.654	612.12
961.385	566
962.116	603.92
962.847	553.7
963.578	585.47
964.308	581.37
965.039	515.77
965.769	604.95
966.5	609.05
967.23	559.85
967.961	605.97
968.691	640.82
969.421	510.64
970.151	643.89
970.881	524.99
971.611	650.04
972.341	593.67
973.071	638.77
973.801	667.47
974.53	560.87
975.26	556.77
975.99	590.6
976.719	657.22
977.448	573.17
978.178	563.95
978.907	619.3
979.636	531.14
980.365	644.92
981.095	676.69
981.824	643.89
982.553	598.8
983.281	554.72
984.01	-1.15
984.739	-26.81
985.468	-45.28
986.196	-86.33
986.925	811.95
987.653	588.55
988.382	694.11
989.11	639.79
989.838	643.89
990.566	720.75
991.295	573.17
992.023	682.84
992.751	678.74
993.478	586.5
994.206	637.74
994.934	587.52
995.662	-6.28
996.389	-49.38
997.117	130.17
997.845	85.03
