Data from SampleKW32_QEPB07591_00001.txt Node
Date: Thu Aug 22 15:28:19 EDT 2019
User: wcc
Spectrometer: QEPB0759
Trigger mode: 0
Integration Time (sec): 1.749000E0
Scans to average: 1
Electric dark correction enabled: true
Nonlinearity correction enabled: true
Boxcar width: 0
XAxis mode: Wavelengths
Number of Pixels in Spectrum: 1044
>>>>>Begin Spectral Data<<<<<
197.938	634.41
198.749	629.29
199.559	561.64
200.369	568.81
201.179	589.32
201.988	583.17
202.798	690.78
203.608	569.84
204.417	568.81
205.227	558.56
206.036	638.51
206.846	631.34
207.655	660.04
208.464	635.44
209.273	663.11
210.082	564.71
210.891	563.69
211.7	587.27
212.508	572.91
213.317	554.46
214.125	520.64
214.934	562.66
215.742	565.74
216.55	564.71
217.359	533.96
218.167	564.71
218.975	650.81
219.782	542.16
220.59	529.86
221.398	527.81
222.206	725.62
223.013	593.42
223.82	549.34
224.628	559.59
225.435	583.17
226.242	633.39
227.049	628.26
227.856	543.19
228.663	607.76
229.47	606.74
230.277	583.17
231.083	571.89
231.89	571.89
232.696	622.11
233.502	567.79
234.309	555.49
235.115	636.46
235.921	615.96
236.727	534.99
237.533	642.61
238.339	634.41
239.144	603.66
239.95	734.84
240.756	613.91
241.561	609.81
242.366	560.61
243.172	628.26
243.977	672.33
244.782	623.14
245.587	626.21
246.392	648.76
247.197	537.04
248.001	529.86
248.806	584.19
249.611	560.61
250.415	615.96
251.219	589.32
252.024	605.71
252.828	568.81
253.632	559.59
254.436	558.56
255.24	652.86
256.044	672.33
256.848	579.07
257.651	537.04
258.455	597.52
259.258	603.66
260.062	49987.26
260.865	638.51
261.668	608.79
262.471	551.39
263.274	624.16
264.077	529.86
264.88	590.34
265.683	547.29
266.486	594.44
267.288	660.04
268.091	521.66
268.893	591.37
269.696	611.86
270.498	606.74
271.3	603.66
272.102	667.21
272.904	590.34
273.706	599.57
274.508	580.09
275.309	599.57
276.111	620.06
276.913	531.91
277.714	505.26
278.515	567.79
279.317	651.84
280.118	532.94
280.919	603.66
281.72	591.37
282.521	639.54
283.322	557.54
284.122	604.69
284.923	637.49
285.724	577.02
286.524	577.02
287.325	700
288.125	536.01
288.925	582.14
289.725	600.59
290.525	687.71
291.325	578.04
292.125	615.96
292.925	657.99
293.724	537.04
294.524	515.51
295.324	531.91
296.123	593.42
296.922	590.34
297.722	862.92
298.521	603.66
299.32	710.25
300.119	519.61
300.918	624.16
301.716	725.62
302.515	572.91
303.314	665.16
304.112	583.17
304.911	698.98
305.709	579.07
306.507	650.81
307.306	592.39
308.104	591.37
308.902	607.76
309.7	599.57
310.498	643.64
311.295	517.56
312.093	651.84
312.891	689.76
313.688	639.54
314.485	604.69
315.283	726.65
316.08	621.09
316.877	585.22
317.674	579.07
318.471	503.21
319.268	572.91
320.065	626.21
320.862	634.41
321.658	570.86
322.455	662.08
323.251	544.21
324.047	538.06
324.844	695.9
325.64	548.31
326.436	609.81
327.232	582.14
328.028	590.34
328.824	557.54
329.62	639.54
330.415	731.77
331.211	623.14
332.006	589.32
332.802	675.41
333.597	589.32
334.392	660.04
335.187	625.19
335.982	552.41
336.777	630.31
337.572	594.44
338.367	612.89
339.162	663.11
339.956	597.52
340.751	622.11
341.545	650.81
342.34	654.91
343.134	552.41
343.928	669.26
344.722	663.11
345.516	558.56
346.31	552.41
347.104	604.69
347.898	600.59
348.691	593.42
349.485	528.84
350.278	642.61
351.072	704.1
351.865	7945.24
352.658	629.29
353.452	690.78
354.245	568.81
355.038	641.59
355.83	597.52
356.623	568.81
357.416	568.81
358.209	606.74
359.001	574.97
359.794	628.26
360.586	644.66
361.378	656.96
362.17	601.62
362.963	540.11
363.755	696.93
364.546	529.86
365.338	618.01
366.13	637.49
366.922	599.57
367.713	586.24
368.505	589.32
369.296	589.32
370.088	491.93
370.879	547.29
371.67	606.74
372.461	563.69
373.252	593.42
374.043	674.38
374.834	487.83
375.625	624.16
376.415	659.01
377.206	609.81
377.996	572.91
378.787	701.03
379.577	508.33
380.367	487.83
381.157	618.01
381.947	580.09
382.737	610.84
383.527	621.09
384.317	698.98
385.107	583.17
385.896	670.28
386.686	621.09
387.475	646.71
388.265	580.09
389.054	845.5
389.843	597.52
390.632	603.66
391.421	630.31
392.21	685.66
392.999	563.69
393.788	643.64
394.576	650.81
395.365	622.11
396.154	609.81
396.942	591.37
397.73	639.54
398.519	633.39
399.307	640.56
400.095	621.09
400.883	730.75
401.671	634.41
402.459	665.16
403.246	585.22
404.034	624.16
404.822	605.71
405.609	720.5
406.396	737.92
407.184	574.97
407.971	698.98
408.758	695.9
409.545	524.74
410.332	707.18
411.119	694.88
411.906	579.07
412.693	691.8
413.479	712.3
414.266	626.21
415.052	693.85
415.839	667.21
416.625	656.96
417.411	727.67
418.197	760.46
418.983	788.13
419.769	742.02
420.555	681.56
421.341	687.71
422.127	696.93
422.912	673.36
423.698	757.39
424.483	669.26
425.269	643.64
426.054	613.91
426.839	718.45
427.624	646.71
428.409	681.56
429.194	705.13
429.979	753.29
430.764	742.02
431.549	734.84
432.333	715.37
433.118	644.66
433.902	757.39
434.687	688.73
435.471	769.68
436.255	764.56
437.039	745.09
437.823	754.31
438.607	748.17
439.391	767.63
440.175	769.68
440.958	746.12
441.742	758.41
442.526	709.23
443.309	801.45
444.092	864.96
444.876	800.42
445.659	778.9
446.442	880.33
447.225	848.57
448.008	887.5
448.791	880.33
449.573	970.47
450.356	927.45
451.139	918.23
451.921	819.89
452.704	887.5
453.486	853.7
454.268	895.7
455.05	871.11
455.833	856.77
456.615	905.94
457.396	891.6
458.178	933.6
458.96	810.67
459.742	883.4
460.523	855.74
461.305	878.28
462.086	938.72
462.868	1005.29
463.649	906.97
464.43	841.4
465.211	1000.17
465.992	877.26
466.773	1046.26
467.554	937.69
468.335	949.99
469.115	942.82
469.896	842.43
470.676	794.27
471.457	909.01
472.237	937.69
473.018	922.33
473.798	877.26
474.578	888.53
475.358	842.43
476.138	770.71
476.918	767.63
477.697	807.59
478.477	905.94
479.257	823.99
480.036	775.83
480.816	750.21
481.595	847.55
482.374	795.3
483.153	859.84
483.932	812.72
484.711	771.73
485.49	780.95
486.269	714.35
487.048	681.56
487.827	794.27
488.605	722.55
489.384	691.8
490.162	767.63
490.941	815.79
491.719	711.28
492.497	718.45
493.275	700
494.053	745.09
494.831	654.91
495.609	712.3
496.387	733.82
497.164	717.42
497.942	700
498.72	642.61
499.497	677.46
500.274	577.02
501.052	650.81
501.829	708.2
502.606	614.94
503.383	655.94
504.16	683.61
504.937	679.51
505.714	577.02
506.49	706.15
507.267	551.39
508.043	650.81
508.82	713.32
509.596	545.24
510.373	581.12
511.149	546.26
511.925	575.99
512.701	608.79
513.477	695.9
514.253	587.27
515.029	579.07
515.804	592.39
516.58	689.76
517.356	600.59
518.131	689.76
518.906	546.26
519.682	606.74
520.457	585.22
521.232	623.14
522.007	620.06
522.782	550.36
523.557	537.04
524.332	542.16
525.107	670.28
525.881	554.46
526.656	509.36
527.43	546.26
528.205	574.97
528.979	530.89
529.753	573.94
530.527	642.61
531.302	562.66
532.076	601.62
532.849	560.61
533.623	591.37
534.397	531.91
535.171	589.32
535.944	651.84
536.718	526.79
537.491	724.6
538.265	489.88
539.038	620.06
539.811	611.86
540.584	589.32
541.357	571.89
542.13	706.15
542.903	700
543.676	601.62
544.449	615.96
545.221	625.19
545.994	578.04
546.766	609.81
547.539	561.64
548.311	620.06
549.083	611.86
549.855	460.15
550.627	650.81
551.399	596.49
552.171	685.66
552.943	635.44
553.715	552.41
554.486	580.09
555.258	544.21
556.029	527.81
556.801	623.14
557.572	533.96
558.343	571.89
559.114	656.96
559.886	635.44
560.657	583.17
561.427	510.38
562.198	554.46
562.969	624.16
563.74	584.19
564.51	555.49
565.281	684.63
566.051	564.71
566.822	563.69
567.592	588.29
568.362	568.81
569.132	562.66
569.902	747.14
570.672	539.09
571.442	620.06
572.212	615.96
572.982	574.97
573.751	629.29
574.521	580.09
575.29	698.98
576.06	639.54
576.829	597.52
577.598	575.99
578.367	534.99
579.136	548.31
579.905	643.64
580.674	653.89
581.443	632.36
582.212	574.97
582.981	652.86
583.749	566.76
584.518	590.34
585.286	689.76
586.054	724.6
586.823	628.26
587.591	554.46
588.359	647.74
589.127	606.74
589.895	686.68
590.663	686.68
591.431	638.51
592.198	649.79
592.966	643.64
593.734	702.05
594.501	608.79
595.268	640.56
596.036	737.92
596.803	613.91
597.57	645.69
598.337	671.31
599.104	689.76
599.871	783
600.638	823.99
601.405	873.16
602.171	797.35
602.938	1043.18
603.704	862.92
604.471	938.72
605.237	1112.82
606.004	1055.47
606.77	1132.27
607.536	1223.39
608.302	1240.79
609.068	1265.36
609.834	1242.84
610.599	1325.74
611.365	1253.07
612.131	1317.56
612.896	1414.78
613.662	1482.31
614.427	1455.71
615.193	1426.03
615.958	1467.98
616.723	1495.61
617.488	1378.96
618.253	1489.47
619.018	1495.61
619.783	1465.94
620.548	1576.42
621.312	1516.07
622.077	1480.26
622.842	1544.71
623.606	1672.57
624.37	1524.25
625.135	1573.36
625.899	1564.15
626.663	1496.63
627.427	1560.06
628.191	1523.23
628.955	1590.75
629.719	1490.49
630.483	1495.61
631.246	1401.47
632.01	1447.52
632.773	1552.9
633.537	1422.96
634.3	1457.75
635.063	1418.87
635.827	1354.4
636.59	1388.17
637.353	1465.94
638.116	1476.17
638.879	1326.77
639.641	1516.07
640.404	1419.89
641.167	1350.31
641.929	1412.73
642.692	1298.11
643.454	1332.91
644.216	1398.4
644.979	1374.87
645.741	1359.52
646.503	1408.64
647.265	1400.45
648.027	1438.31
648.789	1284.8
649.551	1328.81
650.312	1322.67
651.074	1283.78
651.835	1253.07
652.597	1281.73
653.358	1319.6
654.12	1271.5
654.881	1241.81
655.642	1275.59
656.403	1239.77
657.164	1287.87
657.925	1263.31
658.686	1300.16
659.447	1204.96
660.207	1209.06
660.968	1298.11
661.728	1352.35
662.489	1266.38
663.249	1256.14
664.01	1240.79
664.77	1320.63
665.53	1318.58
666.29	1216.22
667.05	1334.96
667.81	1236.69
668.57	1238.74
669.329	1252.05
670.089	1241.81
670.849	1279.69
671.608	1289.92
672.368	1195.75
673.127	1315.51
673.886	1237.72
674.646	1183.46
675.405	1269.45
676.164	1292.99
676.923	1283.78
677.682	1358.49
678.44	1247.95
679.199	1191.65
679.958	1425.01
680.717	1265.36
681.475	1214.17
682.233	1232.6
682.992	1183.46
683.75	1259.21
684.508	1283.78
685.266	1167.08
686.024	1248.98
686.782	1183.46
687.54	1236.69
688.298	1222.36
689.056	1243.86
689.814	1121.01
690.571	1189.6
691.329	1143.53
692.086	1104.62
692.843	1089.27
693.601	1158.89
694.358	1169.13
695.115	1059.57
695.872	1051.38
696.629	996.08
697.386	1156.84
698.143	1146.6
698.9	1013.49
699.656	1013.49
700.413	1050.35
701.169	1095.41
701.926	1021.68
702.682	1056.5
703.438	1006.32
704.195	1133.29
704.951	955.11
705.707	958.18
706.463	980.71
707.219	976.62
707.974	963.3
708.73	899.79
709.486	983.79
710.241	993
710.997	994.03
711.752	1005.29
712.508	999.15
713.263	985.83
714.018	976.62
714.773	976.62
715.528	1084.15
716.283	1001.2
717.038	901.84
717.793	928.48
718.548	901.84
719.303	921.31
720.057	847.55
720.812	843.45
721.566	791.2
722.321	846.52
723.075	834.23
723.829	880.33
724.583	804.52
725.337	809.64
726.091	903.89
726.845	841.4
727.599	734.84
728.353	837.3
729.106	761.49
729.86	898.77
730.614	740.99
731.367	6287.62
732.12	825.01
732.874	759.44
733.627	806.57
734.38	836.28
735.133	815.79
735.886	758.41
736.639	737.92
737.392	795.3
738.145	727.67
738.897	851.65
739.65	765.58
740.403	792.22
741.155	777.88
741.907	781.98
742.66	844.48
743.412	653.89
744.164	756.36
744.916	626.21
745.668	688.73
746.42	750.21
747.172	653.89
747.924	625.19
748.676	534.99
749.427	577.02
750.179	629.29
750.93	659.01
751.682	538.06
752.433	651.84
753.184	698.98
753.935	566.76
754.687	540.11
755.438	646.71
756.189	590.34
756.939	554.46
757.69	547.29
758.441	644.66
759.192	606.74
759.942	662.08
760.693	649.79
761.443	634.41
762.194	556.51
762.944	539.09
763.694	643.64
764.444	564.71
765.194	631.34
765.944	636.46
766.694	636.46
767.444	682.58
768.194	653.89
768.943	550.36
769.693	657.99
770.443	620.06
771.192	641.59
771.941	487.83
772.691	636.46
773.44	603.66
774.189	664.13
774.938	616.99
775.687	579.07
776.436	618.01
777.185	640.56
777.934	561.64
778.683	606.74
779.431	599.57
780.18	662.08
780.928	600.59
781.677	595.47
782.425	628.26
783.173	667.21
783.922	633.39
784.67	721.52
785.418	673.36
786.166	703.08
786.914	547.29
787.661	632.36
788.409	600.59
789.157	586.24
789.904	600.59
790.652	674.38
791.399	647.74
792.147	620.06
792.894	651.84
793.641	602.64
794.388	5339.13
795.136	653.89
795.883	585.22
796.629	667.21
797.376	533.96
798.123	560.61
798.87	531.91
799.616	577.02
800.363	707.18
801.109	706.15
801.856	648.76
802.602	489.88
803.349	705.13
804.095	734.84
804.841	616.99
805.587	628.26
806.333	625.19
807.079	652.86
807.825	631.34
808.57	610.84
809.316	727.67
810.062	632.36
810.807	654.91
811.553	734.84
812.298	671.31
813.043	638.51
813.788	706.15
814.534	620.06
815.279	714.35
816.024	651.84
816.769	630.31
817.514	649.79
818.258	631.34
819.003	716.4
819.748	15385.74
820.492	625.19
821.237	4693.56
821.981	601.62
822.726	712.3
823.47	700
824.214	698.98
824.958	650.81
825.702	661.06
826.446	660.04
827.19	663.11
827.934	708.2
828.678	652.86
829.421	742.02
830.165	659.01
830.909	632.36
831.652	632.36
832.395	702.05
833.139	679.51
833.882	799.4
834.625	630.31
835.368	625.19
836.111	570.86
836.854	631.34
837.597	655.94
838.34	665.16
839.083	667.21
839.825	681.56
840.568	557.54
841.311	633.39
842.053	702.05
842.795	563.69
843.538	615.96
844.28	558.56
845.022	549.34
845.764	778.9
846.506	527.81
847.248	584.19
847.99	649.79
848.732	654.91
849.474	604.69
850.215	533.96
850.957	502.18
851.698	569.84
852.44	657.99
853.181	592.39
853.922	696.93
854.664	592.39
855.405	705.13
856.146	528.84
856.887	612.89
857.628	688.73
858.369	520.64
859.109	693.85
859.85	582.14
860.591	676.43
861.331	545.24
862.072	529.86
862.812	482.7
863.553	555.49
864.293	684.63
865.033	579.07
865.773	608.79
866.513	519.61
867.253	546.26
867.993	570.86
868.733	618.01
869.473	625.19
870.213	675.41
870.952	539.09
871.692	593.42
872.431	555.49
873.171	584.19
873.91	568.81
874.649	501.16
875.388	607.76
876.128	579.07
876.867	527.81
877.606	609.81
878.345	587.27
879.083	554.46
879.822	532.94
880.561	609.81
881.299	575.99
882.038	587.27
882.777	652.86
883.515	681.56
884.253	7877.62
884.992	609.81
885.73	589.32
886.468	599.57
887.206	731.77
887.944	641.59
888.682	666.18
889.42	610.84
890.157	619.04
890.895	547.29
891.633	1283.78
892.37	608.79
893.108	634.41
893.845	622.11
894.583	619.04
895.32	519.61
896.057	541.14
896.794	601.62
897.531	642.61
898.268	571.89
899.005	540.11
899.742	594.44
900.479	578.04
901.215	582.14
901.952	581.12
902.689	522.69
903.425	510.38
904.162	518.59
904.898	602.64
905.634	681.56
906.37	601.62
907.106	502.18
907.843	615.96
908.579	588.29
909.314	463.23
910.05	560.61
910.786	577.02
911.522	500.13
912.257	643.64
912.993	595.47
913.728	549.34
914.464	578.04
915.199	543.19
915.935	527.81
916.67	551.39
917.405	625.19
918.14	615.96
918.875	613.91
919.61	662.08
920.345	668.23
921.08	702.05
921.814	598.54
922.549	553.44
923.284	821.94
924.018	554.46
924.752	679.51
925.487	609.81
926.221	623.14
926.955	598.54
927.69	531.91
928.424	597.52
929.158	641.59
929.892	548.31
930.625	616.99
931.359	706.15
932.093	637.49
932.827	560.61
933.56	581.12
934.294	507.31
935.027	611.86
935.761	642.61
936.494	579.07
937.227	556.51
937.96	638.51
938.693	647.74
939.426	547.29
940.159	659.01
940.892	604.69
941.625	677.46
942.358	659.01
943.091	571.89
943.823	544.21
944.556	509.36
945.288	551.39
946.021	616.99
946.753	557.54
947.485	648.76
948.217	597.52
948.95	623.14
949.682	530.89
950.414	550.36
951.146	591.37
951.877	583.17
952.609	599.57
953.341	615.96
954.073	696.93
954.804	614.94
955.536	577.02
956.267	630.31
956.998	537.04
957.73	548.31
958.461	554.46
959.192	522.69
959.923	665.16
960.654	614.94
961.385	572.91
962.116	602.64
962.847	568.81
963.578	598.54
964.308	578.04
965.039	518.59
965.769	613.91
966.5	620.06
967.23	568.81
967.961	623.14
968.691	648.76
969.421	523.71
970.151	639.54
970.881	521.66
971.611	655.94
972.341	599.57
973.071	646.71
973.801	667.21
974.53	562.66
975.26	579.07
975.99	606.74
976.719	659.01
977.448	580.09
978.178	582.14
978.907	618.01
979.636	537.04
980.365	650.81
981.095	689.76
981.824	653.89
982.553	603.66
983.281	556.51
984.01	2.69
984.739	-18.86
985.468	-42.46
986.196	-85.56
986.925	835.26
987.653	597.52
988.382	705.13
989.11	624.16
989.838	632.36
990.566	730.75
991.295	574.97
992.023	680.53
992.751	690.78
993.478	578.04
994.206	648.76
994.934	592.39
995.662	-15.78
996.389	-49.64
997.117	135.05
997.845	74.52
