Data from SampleKW32_Bg_QEPB07591_00002.txt Node
Date: Thu Aug 22 15:29:12 EDT 2019
User: wcc
Spectrometer: QEPB0759
Trigger mode: 0
Integration Time (sec): 1.749000E0
Scans to average: 1
Electric dark correction enabled: true
Nonlinearity correction enabled: true
Boxcar width: 0
XAxis mode: Wavelengths
Number of Pixels in Spectrum: 1044
>>>>>Begin Spectral Data<<<<<
197.938	638.13
198.749	619.68
199.559	575.61
200.369	572.53
201.179	600.21
201.988	588.93
202.798	710.89
203.608	570.48
204.417	600.21
205.227	552.03
206.036	628.9
206.846	612.51
207.655	652.48
208.464	626.85
209.273	664.78
210.082	566.38
210.891	576.63
211.7	586.88
212.508	573.56
213.317	558.18
214.125	518.2
214.934	576.63
215.742	576.63
216.55	551
217.359	529.48
218.167	560.23
218.975	647.35
219.782	571.51
220.59	536.65
221.398	523.33
222.206	730.36
223.013	610.46
223.82	543.83
224.628	560.23
225.435	580.73
226.242	635.05
227.049	626.85
227.856	565.36
228.663	615.58
229.47	584.83
230.277	593.03
231.083	573.56
231.89	560.23
232.696	621.73
233.502	570.48
234.309	562.28
235.115	627.88
235.921	618.65
236.727	530.5
237.533	654.53
238.339	643.25
239.144	615.58
239.95	739.58
240.756	613.53
241.561	619.68
242.366	561.26
243.172	622.75
243.977	680.15
244.782	628.9
245.587	630.95
246.392	645.3
247.197	532.55
248.001	541.78
248.806	575.61
249.611	569.46
250.415	619.68
251.219	582.78
252.024	633
252.828	545.88
253.632	551
254.436	560.23
255.24	650.43
256.044	648.38
256.848	578.68
257.651	542.8
258.455	600.21
259.258	600.21
260.062	52132.87
260.865	652.48
261.668	611.48
262.471	544.85
263.274	647.35
264.077	537.68
264.88	593.03
265.683	551
266.486	586.88
267.288	652.48
268.091	521.28
268.893	592.01
269.696	605.33
270.498	616.61
271.3	599.18
272.102	666.82
272.904	595.08
273.706	586.88
274.508	592.01
275.309	619.68
276.111	603.28
276.913	530.5
277.714	501.8
278.515	558.18
279.317	657.6
280.118	535.63
280.919	602.26
281.72	583.81
282.521	626.85
283.322	538.7
284.122	604.31
284.923	629.93
285.724	589.96
286.524	580.73
287.325	699.62
288.125	518.2
288.925	561.26
289.725	594.06
290.525	690.4
291.325	585.86
292.125	616.61
292.925	640.18
293.724	543.83
294.524	515.13
295.324	543.83
296.123	590.98
296.922	592.01
297.722	868.68
298.521	608.41
299.32	692.45
300.119	529.48
300.918	616.61
301.716	730.36
302.515	585.86
303.314	664.78
304.112	589.96
304.911	698.59
305.709	581.76
306.507	638.13
307.306	596.11
308.104	584.83
308.902	603.28
309.7	598.16
310.498	652.48
311.295	517.18
312.093	657.6
312.891	686.3
313.688	631.98
314.485	598.16
315.283	725.24
316.08	625.83
316.877	584.83
317.674	596.11
318.471	492.57
319.268	566.38
320.065	625.83
320.862	627.88
321.658	571.51
322.455	636.08
323.251	558.18
324.047	555.1
324.844	702.69
325.64	537.68
326.436	598.16
327.232	585.86
328.028	590.98
328.824	539.73
329.62	644.28
330.415	724.21
331.211	618.65
332.006	605.33
332.802	666.82
333.597	593.03
334.392	649.4
335.187	638.13
335.982	568.43
336.777	629.93
337.572	579.71
338.367	637.1
339.162	649.4
339.956	592.01
340.751	635.05
341.545	649.4
342.34	648.38
343.134	553.05
343.928	665.8
344.722	670.92
345.516	567.41
346.31	552.03
347.104	608.41
347.898	603.28
348.691	590.98
349.485	514.1
350.278	637.1
351.072	707.82
351.865	7241.01
352.658	639.15
353.452	683.22
354.245	585.86
355.038	637.1
355.83	587.91
356.623	570.48
357.416	572.53
358.209	583.81
359.001	567.41
359.794	611.48
360.586	647.35
361.378	658.63
362.17	584.83
362.963	529.48
363.755	686.3
364.546	534.6
365.338	629.93
366.13	639.15
366.922	635.05
367.713	593.03
368.505	592.01
369.296	575.61
370.088	482.32
370.879	555.1
371.67	597.13
372.461	552.03
373.252	598.16
374.043	675.02
374.834	484.37
375.625	630.95
376.415	661.7
377.206	618.65
377.996	577.66
378.787	703.72
379.577	520.25
380.367	487.45
381.157	622.75
381.947	594.06
382.737	620.7
383.527	612.51
384.317	685.27
385.107	593.03
385.896	658.63
386.686	620.7
387.475	641.2
388.265	575.61
389.054	832.82
389.843	585.86
390.632	598.16
391.421	617.63
392.21	658.63
392.999	546.9
393.788	610.46
394.576	633
395.365	615.58
396.154	593.03
396.942	566.38
397.73	595.08
398.519	613.53
399.307	621.73
400.095	614.56
400.883	703.72
401.671	590.98
402.459	629.93
403.246	552.03
404.034	584.83
404.822	578.68
405.609	660.68
406.396	694.49
407.184	526.4
407.971	641.2
408.758	630.95
409.545	473.09
410.332	646.33
411.119	651.45
411.906	529.48
412.693	616.61
413.479	648.38
414.266	566.38
415.052	638.13
415.839	593.03
416.625	563.31
417.411	637.1
418.197	670.92
418.983	695.52
419.769	643.25
420.555	593.03
421.341	595.08
422.127	607.38
422.912	586.88
423.698	655.55
424.483	579.71
425.269	552.03
426.054	518.2
426.839	624.8
427.624	562.28
428.409	580.73
429.194	599.18
429.979	624.8
430.764	615.58
431.549	606.36
432.333	584.83
433.118	520.25
433.902	631.98
434.687	563.31
435.471	620.7
436.255	607.38
437.039	579.71
437.823	603.28
438.607	566.38
439.391	601.23
440.175	609.43
440.958	562.28
441.742	593.03
442.526	524.35
443.309	612.51
444.092	683.22
444.876	594.06
445.659	593.03
446.442	678.1
447.225	656.58
448.008	670.92
448.791	650.43
449.573	748.81
450.356	666.82
451.139	660.68
451.921	555.1
452.704	630.95
453.486	600.21
454.268	626.85
455.05	623.78
455.833	565.36
456.615	629.93
457.396	598.16
458.178	617.63
458.96	544.85
459.742	594.06
460.523	576.63
461.305	560.23
462.086	621.73
462.868	705.77
463.649	611.48
464.43	563.31
465.211	698.59
465.992	546.9
466.773	726.26
467.554	601.23
468.335	629.93
469.115	636.08
469.896	514.1
470.676	499.75
471.457	617.63
472.237	607.38
473.018	604.31
473.798	593.03
474.578	641.2
475.358	583.81
476.138	524.35
476.918	533.58
477.697	561.26
478.477	674
479.257	605.33
480.036	552.03
480.816	525.38
481.595	617.63
482.374	579.71
483.153	651.45
483.932	612.51
484.711	595.08
485.49	595.08
486.269	564.33
487.048	513.08
487.827	638.13
488.605	572.53
489.384	555.1
490.162	615.58
490.941	669.9
491.719	568.43
492.497	574.58
493.275	582.78
494.053	600.21
494.831	549.98
495.609	618.65
496.387	622.75
497.164	637.1
497.942	607.38
498.72	578.68
499.497	595.08
500.274	513.08
501.052	602.26
501.829	641.2
502.606	555.1
503.383	605.33
504.16	622.75
504.937	618.65
505.714	533.58
506.49	665.8
507.267	522.3
508.043	611.48
508.82	671.95
509.596	530.5
510.373	581.76
511.149	527.43
511.925	584.83
512.701	609.43
513.477	677.07
514.253	593.03
515.029	585.86
515.804	585.86
516.58	675.02
517.356	597.13
518.131	683.22
518.906	551
519.682	598.16
520.457	574.58
521.232	622.75
522.007	619.68
522.782	560.23
523.557	541.78
524.332	531.53
525.107	668.87
525.881	561.26
526.656	507.95
527.43	545.88
528.205	574.58
528.979	538.7
529.753	554.08
530.527	642.23
531.302	557.15
532.076	599.18
532.849	573.56
533.623	592.01
534.397	547.93
535.171	597.13
535.944	631.98
536.718	530.5
537.491	702.69
538.265	488.47
539.038	607.38
539.811	610.46
540.584	577.66
541.357	575.61
542.13	698.59
542.903	684.25
543.676	598.16
544.449	598.16
545.221	635.05
545.994	572.53
546.766	607.38
547.539	553.05
548.311	635.05
549.083	589.96
549.855	448.49
550.627	657.6
551.399	583.81
552.171	680.15
552.943	621.73
553.715	540.75
554.486	586.88
555.258	548.95
556.029	549.98
556.801	616.61
557.572	523.33
558.343	568.43
559.114	654.53
559.886	624.8
560.657	590.98
561.427	506.92
562.198	527.43
562.969	607.38
563.74	587.91
564.51	558.18
565.281	692.45
566.051	569.46
566.822	558.18
567.592	585.86
568.362	548.95
569.132	568.43
569.902	752.9
570.672	523.33
571.442	633
572.212	617.63
572.982	574.58
573.751	620.7
574.521	582.78
575.29	705.77
576.06	628.9
576.829	609.43
577.598	560.23
578.367	533.58
579.136	556.13
579.905	636.08
580.674	670.92
581.443	630.95
582.212	565.36
582.981	641.2
583.749	563.31
584.518	582.78
585.286	696.54
586.054	719.09
586.823	625.83
587.591	554.08
588.359	661.7
589.127	613.53
589.895	684.25
590.663	682.2
591.431	628.9
592.198	650.43
592.966	646.33
593.734	702.69
594.501	590.98
595.268	622.75
596.036	694.49
596.803	563.31
597.57	579.71
598.337	556.13
599.104	566.38
599.871	643.25
600.638	638.13
601.405	680.15
602.171	551
602.938	757
603.704	537.68
604.471	563.31
605.237	691.42
606.004	587.91
606.77	635.05
607.536	688.35
608.302	668.87
609.068	660.68
609.834	606.36
610.599	655.55
611.365	556.13
612.131	601.23
612.896	622.75
613.662	709.87
614.427	629.93
615.193	604.31
615.958	619.68
616.723	645.3
617.488	512.05
618.253	626.85
619.018	602.26
619.783	558.18
620.548	682.2
621.312	599.18
622.077	558.18
622.842	630.95
623.606	748.81
624.37	603.28
625.135	658.63
625.899	657.6
626.663	572.53
627.427	645.3
628.191	622.75
628.955	698.59
629.719	593.03
630.483	617.63
631.246	506.92
632.01	570.48
632.773	687.32
633.537	563.31
634.3	606.36
635.063	570.48
635.827	521.28
636.59	560.23
637.353	645.3
638.116	660.68
638.879	530.5
639.641	713.97
640.404	630.95
641.167	597.13
641.929	647.35
642.692	546.9
643.454	562.28
644.216	653.5
644.979	642.23
645.741	640.18
646.503	678.1
647.265	659.65
648.027	699.62
648.789	553.05
649.551	625.83
650.312	612.51
651.074	594.06
651.835	568.43
652.597	621.73
653.358	645.3
654.12	604.31
654.881	593.03
655.642	616.61
656.403	587.91
657.164	640.18
657.925	615.58
658.686	661.7
659.447	548.95
660.207	566.38
660.968	637.1
661.728	700.64
662.489	611.48
663.249	619.68
664.01	582.78
664.77	671.95
665.53	647.35
666.29	568.43
667.05	650.43
667.81	592.01
668.57	568.43
669.329	572.53
670.089	585.86
670.849	621.73
671.608	655.55
672.368	543.83
673.127	650.43
673.886	569.46
674.646	530.5
675.405	612.51
676.164	645.3
676.923	628.9
677.682	710.89
678.44	610.46
679.199	549.98
679.958	816.43
680.717	623.78
681.475	555.1
682.233	575.61
682.992	508.97
683.75	584.83
684.508	640.18
685.266	543.83
686.024	642.23
686.782	589.96
687.54	662.73
688.298	624.8
689.056	684.25
689.814	531.53
690.571	625.83
691.329	600.21
692.086	577.66
692.843	565.36
693.601	627.88
694.358	655.55
695.115	539.73
695.872	565.36
696.629	520.25
697.386	679.12
698.143	679.12
698.9	559.21
699.656	565.36
700.413	588.93
701.169	641.2
701.926	595.08
702.682	609.43
703.438	562.28
704.195	701.67
704.951	526.4
705.707	525.38
706.463	539.73
707.219	566.38
707.974	543.83
708.73	503.85
709.486	566.38
710.241	585.86
710.997	581.76
711.752	618.65
712.508	604.31
713.263	573.56
714.018	590.98
714.773	602.26
715.528	716.01
716.283	643.25
717.038	555.1
717.793	608.41
718.548	574.58
719.303	618.65
720.057	566.38
720.812	570.48
721.566	521.28
722.321	577.66
723.075	590.98
723.829	627.88
724.583	585.86
725.337	586.88
726.091	670.92
726.845	615.58
727.599	519.23
728.353	608.41
729.106	543.83
729.86	688.35
730.614	519.23
731.367	6284.21
732.12	592.01
732.874	554.08
733.627	610.46
734.38	640.18
735.133	623.78
735.886	566.38
736.639	584.83
737.392	615.58
738.145	538.7
738.897	671.95
739.65	605.33
740.403	623.78
741.155	630.95
741.907	626.85
742.66	699.62
743.412	522.3
744.164	638.13
744.916	533.58
745.668	600.21
746.42	689.37
747.172	609.43
747.924	598.16
748.676	523.33
749.427	580.73
750.179	628.9
750.93	642.23
751.682	528.45
752.433	652.48
753.184	698.59
753.935	565.36
754.687	536.65
755.438	639.15
756.189	601.23
756.939	560.23
757.69	546.9
758.441	642.23
759.192	593.03
759.942	654.53
760.693	644.28
761.443	625.83
762.194	555.1
762.944	545.88
763.694	647.35
764.444	573.56
765.194	628.9
765.944	629.93
766.694	647.35
767.444	656.58
768.194	638.13
768.943	535.63
769.693	663.75
770.443	629.93
771.192	658.63
771.941	486.42
772.691	628.9
773.44	606.36
774.189	654.53
774.938	617.63
775.687	588.93
776.436	627.88
777.185	644.28
777.934	549.98
778.683	608.41
779.431	600.21
780.18	656.58
780.928	583.81
781.677	594.06
782.425	639.15
783.173	652.48
783.922	649.4
784.67	723.19
785.418	659.65
786.166	710.89
786.914	551
787.661	614.56
788.409	599.18
789.157	599.18
789.904	602.26
790.652	658.63
791.399	638.13
792.147	630.95
792.894	661.7
793.641	597.13
794.388	5309.34
795.136	651.45
795.883	584.83
796.629	668.87
797.376	535.63
798.123	557.15
798.87	527.43
799.616	578.68
800.363	716.01
801.109	712.94
801.856	648.38
802.602	475.14
803.349	691.42
804.095	730.36
804.841	617.63
805.587	616.61
806.333	628.9
807.079	657.6
807.825	630.95
808.57	610.46
809.316	727.29
810.062	619.68
810.807	647.35
811.553	753.93
812.298	665.8
813.043	646.33
813.788	693.47
814.534	610.46
815.279	713.97
816.024	647.35
816.769	625.83
817.514	656.58
818.258	621.73
819.003	704.74
819.748	15721.13
820.492	616.61
821.237	4715.53
821.981	603.28
822.726	697.57
823.47	711.92
824.214	702.69
824.958	641.2
825.702	651.45
826.446	667.85
827.19	669.9
827.934	725.24
828.678	660.68
829.421	743.68
830.165	658.63
830.909	642.23
831.652	620.7
832.395	705.77
833.139	700.64
833.882	791.84
834.625	638.13
835.368	623.78
836.111	559.21
836.854	631.98
837.597	658.63
838.34	666.82
839.083	665.8
839.825	685.27
840.568	555.1
841.311	630.95
842.053	694.49
842.795	568.43
843.538	611.48
844.28	563.31
845.022	563.31
845.764	769.3
846.506	538.7
847.248	589.96
847.99	643.25
848.732	649.4
849.474	597.13
850.215	527.43
850.957	504.87
851.698	580.73
852.44	651.45
853.181	590.98
853.922	694.49
854.664	595.08
855.405	698.59
856.146	529.48
856.887	599.18
857.628	692.45
858.369	532.55
859.109	685.27
859.85	587.91
860.591	686.3
861.331	555.1
862.072	507.95
862.812	491.55
863.553	554.08
864.293	687.32
865.033	581.76
865.773	619.68
866.513	523.33
867.253	556.13
867.993	569.46
868.733	599.18
869.473	622.75
870.213	659.65
870.952	536.65
871.692	597.13
872.431	557.15
873.171	583.81
873.91	567.41
874.649	494.62
875.388	623.78
876.128	601.23
876.867	518.2
877.606	594.06
878.345	593.03
879.083	556.13
879.822	538.7
880.561	610.46
881.299	580.73
882.038	590.98
882.777	653.5
883.515	683.22
884.253	7912.57
884.992	604.31
885.73	595.08
886.468	598.16
887.206	731.39
887.944	636.08
888.682	649.4
889.42	603.28
890.157	622.75
890.895	565.36
891.633	1283.4
892.37	600.21
893.108	630.95
893.845	612.51
894.583	595.08
895.32	512.05
896.057	535.63
896.794	607.38
897.531	650.43
898.268	575.61
899.005	556.13
899.742	592.01
900.479	584.83
901.215	589.96
901.952	558.18
902.689	527.43
903.425	494.62
904.162	527.43
904.898	608.41
905.634	678.1
906.37	607.38
907.106	506.92
907.843	630.95
908.579	593.03
909.314	452.59
910.05	573.56
910.786	572.53
911.522	516.15
912.257	646.33
912.993	604.31
913.728	562.28
914.464	575.61
915.199	557.15
915.935	518.2
916.67	563.31
917.405	613.53
918.14	626.85
918.875	618.65
919.61	654.53
920.345	671.95
921.08	703.72
921.814	601.23
922.549	543.83
923.284	823.6
924.018	564.33
924.752	689.37
925.487	607.38
926.221	631.98
926.955	595.08
927.69	535.63
928.424	592.01
929.158	630.95
929.892	561.26
930.625	626.85
931.359	728.31
932.093	638.13
932.827	561.26
933.56	579.71
934.294	507.95
935.027	617.63
935.761	642.23
936.494	587.91
937.227	545.88
937.96	636.08
938.693	653.5
939.426	551
940.159	658.63
940.892	598.16
941.625	674
942.358	657.6
943.091	597.13
943.823	535.63
944.556	532.55
945.288	567.41
946.021	624.8
946.753	563.31
947.485	642.23
948.217	598.16
948.95	611.48
949.682	530.5
950.414	538.7
951.146	605.33
951.877	564.33
952.609	588.93
953.341	611.48
954.073	678.1
954.804	604.31
955.536	576.63
956.267	644.28
956.998	544.85
957.73	540.75
958.461	547.93
959.192	523.33
959.923	680.15
960.654	614.56
961.385	571.51
962.116	611.48
962.847	574.58
963.578	588.93
964.308	576.63
965.039	519.23
965.769	608.41
966.5	636.08
967.23	578.68
967.961	607.38
968.691	647.35
969.421	515.13
970.151	655.55
970.881	536.65
971.611	650.43
972.341	602.26
973.071	654.53
973.801	669.9
974.53	558.18
975.26	571.51
975.99	592.01
976.719	654.53
977.448	562.28
978.178	569.46
978.907	613.53
979.636	536.65
980.365	654.53
981.095	678.1
981.824	646.33
982.553	588.93
983.281	557.15
984.01	-4.87
984.739	-22.32
985.468	-46.95
986.196	-79.79
986.925	833.85
987.653	604.31
988.382	692.45
989.11	636.08
989.838	631.98
990.566	739.58
991.295	579.71
992.023	678.1
992.751	690.4
993.478	575.61
994.206	652.48
994.934	616.61
995.662	-10
996.389	-54.13
997.117	133.64
997.845	84.39
