Data from SampleKW32_Bg_QEPB07591_00005.txt Node
Date: Thu Aug 22 15:29:17 EDT 2019
User: wcc
Spectrometer: QEPB0759
Trigger mode: 0
Integration Time (sec): 1.749000E0
Scans to average: 1
Electric dark correction enabled: true
Nonlinearity correction enabled: true
Boxcar width: 0
XAxis mode: Wavelengths
Number of Pixels in Spectrum: 1044
>>>>>Begin Spectral Data<<<<<
197.938	634.93
198.749	592.9
199.559	568.3
200.369	554.98
201.179	585.73
201.988	591.88
202.798	713.84
203.608	588.8
204.417	592.9
205.227	550.88
206.036	625.7
206.846	627.75
207.655	660.55
208.464	620.58
209.273	656.45
210.082	573.43
210.891	573.43
211.7	591.88
212.508	568.3
213.317	553.95
214.125	523.2
214.934	580.6
215.742	578.55
216.55	564.2
217.359	525.25
218.167	562.15
218.975	668.75
219.782	554.98
220.59	539.6
221.398	509.87
222.206	708.71
223.013	593.93
223.82	527.3
224.628	559.08
225.435	583.68
226.242	628.78
227.049	624.68
227.856	571.38
228.663	622.63
229.47	586.75
230.277	586.75
231.083	575.48
231.89	550.88
232.696	616.48
233.502	577.53
234.309	552.93
235.115	619.55
235.921	610.33
236.727	523.2
237.533	652.35
238.339	636.98
239.144	602.13
239.95	738.43
240.756	620.58
241.561	603.15
242.366	553.95
243.172	622.63
243.977	675.92
244.782	619.55
245.587	641.08
246.392	647.22
247.197	521.15
248.001	528.32
248.806	570.35
249.611	554.98
250.415	619.55
251.219	601.1
252.024	622.63
252.828	557.03
253.632	563.18
254.436	547.8
255.24	651.32
256.044	652.35
256.848	583.68
257.651	544.73
258.455	595.98
259.258	598.03
260.062	49283.36
260.865	649.27
261.668	614.43
262.471	562.15
263.274	640.05
264.077	549.85
264.88	588.8
265.683	539.6
266.486	585.73
267.288	660.55
268.091	513.97
268.893	573.43
269.696	608.28
270.498	603.15
271.3	599.05
272.102	658.5
272.904	574.45
273.706	591.88
274.508	577.53
275.309	618.53
276.111	619.55
276.913	513.97
277.714	509.87
278.515	568.3
279.317	653.37
280.118	527.3
280.919	604.18
281.72	574.45
282.521	628.78
283.322	540.63
284.122	614.43
284.923	630.83
285.724	581.63
286.524	565.23
287.325	711.79
288.125	525.25
288.925	557.03
289.725	591.88
290.525	674.9
291.325	586.75
292.125	607.25
292.925	652.35
293.724	542.68
294.524	507.82
295.324	540.63
296.123	597
296.922	589.83
297.722	866.5
298.521	602.13
299.32	693.34
300.119	525.25
300.918	623.65
301.716	724.08
302.515	583.68
303.314	651.32
304.112	574.45
304.911	682.07
305.709	592.9
306.507	655.42
307.306	594.95
308.104	581.63
308.902	610.33
309.7	585.73
310.498	646.2
311.295	508.85
312.093	650.3
312.891	695.39
313.688	632.88
314.485	592.9
315.283	730.23
316.08	618.53
316.877	581.63
317.674	589.83
318.471	484.24
319.268	559.08
320.065	620.58
320.862	627.75
321.658	588.8
322.455	651.32
323.251	554.98
324.047	553.95
324.844	709.74
325.64	530.37
326.436	607.25
327.232	572.4
328.028	579.58
328.824	551.9
329.62	636.98
330.415	729.21
331.211	617.5
332.006	592.9
332.802	669.77
333.597	573.43
334.392	661.57
335.187	622.63
335.982	558.05
336.777	649.27
337.572	576.5
338.367	624.68
339.162	665.67
339.956	592.9
340.751	614.43
341.545	645.17
342.34	645.17
343.134	549.85
343.928	673.87
344.722	667.72
345.516	560.1
346.31	549.85
347.104	601.1
347.898	600.08
348.691	585.73
349.485	513.97
350.278	636.98
351.072	695.39
351.865	7233.81
352.658	615.45
353.452	673.87
354.245	575.48
355.038	638
355.83	591.88
356.623	579.58
357.416	574.45
358.209	581.63
359.001	558.05
359.794	621.6
360.586	636.98
361.378	651.32
362.17	587.78
362.963	538.58
363.755	689.24
364.546	521.15
365.338	623.65
366.13	641.08
366.922	621.6
367.713	569.33
368.505	588.8
369.296	560.1
370.088	492.44
370.879	544.73
371.67	612.38
372.461	542.68
373.252	592.9
374.043	683.09
374.834	476.04
375.625	630.83
376.415	655.42
377.206	611.35
377.996	573.43
378.787	710.76
379.577	518.07
380.367	497.57
381.157	629.8
381.947	572.4
382.737	616.48
383.527	620.58
384.317	687.19
385.107	594.95
385.896	664.65
386.686	618.53
387.475	635.95
388.265	577.53
389.054	831.67
389.843	597
390.632	589.83
391.421	617.5
392.21	666.7
392.999	550.88
393.788	609.3
394.576	624.68
395.365	606.23
396.154	590.85
396.942	566.25
397.73	602.13
398.519	619.55
399.307	616.48
400.095	600.08
400.883	698.47
401.671	594.95
402.459	618.53
403.246	548.83
404.034	583.68
404.822	568.3
405.609	661.57
406.396	690.27
407.184	528.32
407.971	638
408.758	643.12
409.545	451.43
410.332	650.3
411.119	641.08
411.906	550.88
412.693	621.6
413.479	640.05
414.266	572.4
415.052	625.7
415.839	608.28
416.625	572.4
417.411	645.17
418.197	666.7
418.983	692.32
419.769	650.3
420.555	590.85
421.341	599.05
422.127	602.13
422.912	562.15
423.698	664.65
424.483	568.3
425.269	567.28
426.054	528.32
426.839	624.68
427.624	567.28
428.409	580.6
429.194	599.05
429.979	632.88
430.764	618.53
431.549	626.73
432.333	583.68
433.118	499.62
433.902	630.83
434.687	567.28
435.471	616.48
436.255	608.28
437.039	576.5
437.823	587.78
438.607	579.58
439.391	610.33
440.175	593.93
440.958	570.35
441.742	575.48
442.526	527.3
443.309	612.38
444.092	670.8
444.876	604.18
445.659	588.8
446.442	672.85
447.225	651.32
448.008	681.04
448.791	642.1
449.573	745.6
450.356	668.75
451.139	670.8
451.921	557.03
452.704	614.43
453.486	591.88
454.268	636.98
455.05	618.53
455.833	577.53
456.615	627.75
457.396	599.05
458.178	627.75
458.96	529.35
459.742	590.85
460.523	567.28
461.305	579.58
462.086	612.38
462.868	712.81
463.649	599.05
464.43	567.28
465.211	703.59
465.992	550.88
466.773	718.96
467.554	598.03
468.335	612.38
469.115	615.45
469.896	509.87
470.676	479.12
471.457	615.45
472.237	616.48
473.018	594.95
473.798	600.08
474.578	631.85
475.358	583.68
476.138	531.4
476.918	533.45
477.697	577.53
478.477	674.9
479.257	616.48
480.036	561.13
480.816	532.42
481.595	622.63
482.374	609.3
483.153	646.2
483.932	602.13
484.711	590.85
485.49	606.23
486.269	548.83
487.048	513.97
487.827	655.42
488.605	576.5
489.384	561.13
490.162	622.63
490.941	672.85
491.719	564.2
492.497	582.65
493.275	575.48
494.053	631.85
494.831	561.13
495.609	610.33
496.387	623.65
497.164	627.75
497.942	608.28
498.72	566.25
499.497	602.13
500.274	510.9
501.052	580.6
501.829	634.93
502.606	560.1
503.383	598.03
504.16	627.75
504.937	623.65
505.714	531.4
506.49	671.82
507.267	518.07
508.043	610.33
508.82	684.12
509.596	520.12
510.373	560.1
511.149	529.35
511.925	585.73
512.701	606.23
513.477	680.02
514.253	589.83
515.029	569.33
515.804	590.85
516.58	691.29
517.356	587.78
518.131	684.12
518.906	552.93
519.682	600.08
520.457	588.8
521.232	614.43
522.007	622.63
522.782	544.73
523.557	539.6
524.332	542.68
525.107	688.22
525.881	553.95
526.656	518.07
527.43	545.75
528.205	565.23
528.979	527.3
529.753	564.2
530.527	641.08
531.302	559.08
532.076	607.25
532.849	575.48
533.623	573.43
534.397	527.3
535.171	583.68
535.944	652.35
536.718	513.97
537.491	705.64
538.265	485.27
539.038	609.3
539.811	609.3
540.584	587.78
541.357	571.38
542.13	694.37
542.903	700.52
543.676	608.28
544.449	607.25
545.221	628.78
545.994	573.43
546.766	604.18
547.539	558.05
548.311	643.12
549.083	590.85
549.855	455.54
550.627	666.7
551.399	609.3
552.171	692.32
552.943	640.05
553.715	538.58
554.486	590.85
555.258	540.63
556.029	525.25
556.801	614.43
557.572	525.25
558.343	561.13
559.114	642.1
559.886	642.1
560.657	575.48
561.427	512.95
562.198	564.2
562.969	601.1
563.74	590.85
564.51	542.68
565.281	685.14
566.051	557.03
566.822	565.23
567.592	583.68
568.362	565.23
569.132	566.25
569.902	750.73
570.672	541.65
571.442	628.78
572.212	626.73
572.982	578.55
573.751	623.65
574.521	591.88
575.29	714.86
576.06	628.78
576.829	600.08
577.598	567.28
578.367	518.07
579.136	550.88
579.905	604.18
580.674	659.52
581.443	646.2
582.212	567.28
582.981	653.37
583.749	548.83
584.518	585.73
585.286	683.09
586.054	722.04
586.823	616.48
587.591	546.78
588.359	649.27
589.127	618.53
589.895	676.95
590.663	694.37
591.431	641.08
592.198	645.17
592.966	648.25
593.734	685.14
594.501	597
595.268	606.23
596.036	699.49
596.803	565.23
597.57	567.28
598.337	576.5
599.104	569.33
599.871	640.05
600.638	633.9
601.405	665.67
602.171	561.13
602.938	750.73
603.704	538.58
604.471	554.98
605.237	701.54
606.004	577.53
606.77	649.27
607.536	692.32
608.302	667.72
609.068	655.42
609.834	615.45
610.599	655.42
611.365	563.18
612.131	615.45
612.896	640.05
613.662	698.47
614.427	643.12
615.193	591.88
615.958	622.63
616.723	645.17
617.488	505.77
618.253	622.63
619.018	607.25
619.783	564.2
620.548	666.7
621.312	608.28
622.077	565.23
622.842	619.55
623.606	747.65
624.37	602.13
625.135	655.42
625.899	638
626.663	592.9
627.427	645.17
628.191	625.7
628.955	692.32
629.719	601.1
630.483	607.25
631.246	511.92
632.01	577.53
632.773	691.29
633.537	559.08
634.3	604.18
635.063	570.35
635.827	524.22
636.59	556
637.353	651.32
638.116	662.6
638.879	532.42
639.641	704.61
640.404	628.78
641.167	587.78
641.929	646.2
642.692	540.63
643.454	567.28
644.216	642.1
644.979	638
645.741	648.25
646.503	665.67
647.265	655.42
648.027	696.42
648.789	548.83
649.551	622.63
650.312	598.03
651.074	582.65
651.835	577.53
652.597	621.6
653.358	656.45
654.12	611.35
654.881	606.23
655.642	604.18
656.403	577.53
657.164	638
657.925	608.28
658.686	652.35
659.447	548.83
660.207	549.85
660.968	624.68
661.728	700.52
662.489	607.25
663.249	635.95
664.01	575.48
664.77	658.5
665.53	664.65
666.29	554.98
667.05	648.25
667.81	574.45
668.57	564.2
669.329	574.45
670.089	578.55
670.849	612.38
671.608	644.15
672.368	524.22
673.127	648.25
673.886	565.23
674.646	515
675.405	600.08
676.164	623.65
676.923	634.93
677.682	706.66
678.44	619.55
679.199	546.78
679.958	812.2
680.717	621.6
681.475	547.8
682.233	577.53
682.992	509.87
683.75	586.75
684.508	649.27
685.266	546.78
686.024	657.47
686.782	593.93
687.54	644.15
688.298	628.78
689.056	686.17
689.814	530.37
690.571	634.93
691.329	597
692.086	586.75
692.843	575.48
693.601	630.83
694.358	661.57
695.115	542.68
695.872	569.33
696.629	524.22
697.386	659.52
698.143	672.85
698.9	551.9
699.656	562.15
700.413	581.63
701.169	644.15
701.926	572.4
702.682	620.58
703.438	566.25
704.195	698.47
704.951	511.92
705.707	524.22
706.463	524.22
707.219	577.53
707.974	531.4
708.73	489.37
709.486	571.38
710.241	595.98
710.997	564.2
711.752	613.4
712.508	600.08
713.263	584.7
714.018	608.28
714.773	586.75
715.528	714.86
716.283	654.4
717.038	552.93
717.793	617.5
718.548	586.75
719.303	618.53
720.057	563.18
720.812	553.95
721.566	518.07
722.321	592.9
723.075	578.55
723.829	631.85
724.583	577.53
725.337	586.75
726.091	669.77
726.845	616.48
727.599	518.07
728.353	605.2
729.106	536.53
729.86	683.09
730.614	524.22
731.367	5613.44
732.12	581.63
732.874	546.78
733.627	598.03
734.38	632.88
735.133	609.3
735.886	570.35
736.639	578.55
737.392	620.58
738.145	550.88
738.897	656.45
739.65	589.83
740.403	632.88
741.155	616.48
741.907	634.93
742.66	698.47
743.412	530.37
744.164	640.05
744.916	524.22
745.668	598.03
746.42	687.19
747.172	607.25
747.924	595.98
748.676	532.42
749.427	578.55
750.179	630.83
750.93	649.27
751.682	531.4
752.433	644.15
753.184	706.66
753.935	578.55
754.687	529.35
755.438	636.98
756.189	606.23
756.939	570.35
757.69	545.75
758.441	646.2
759.192	593.93
759.942	648.25
760.693	643.12
761.443	634.93
762.194	550.88
762.944	540.63
763.694	650.3
764.444	564.2
765.194	642.1
765.944	626.73
766.694	640.05
767.444	673.87
768.194	639.03
768.943	547.8
769.693	647.22
770.443	628.78
771.192	649.27
771.941	501.67
772.691	646.2
773.44	600.08
774.189	643.12
774.938	606.23
775.687	578.55
776.436	619.55
777.185	632.88
777.934	565.23
778.683	604.18
779.431	599.05
780.18	661.57
780.928	591.88
781.677	602.13
782.425	621.6
783.173	644.15
783.922	655.42
784.67	716.91
785.418	672.85
786.166	708.71
786.914	551.9
787.661	617.5
788.409	604.18
789.157	597
789.904	603.15
790.652	673.87
791.399	619.55
792.147	632.88
792.894	659.52
793.641	598.03
794.388	5310.22
795.136	644.15
795.883	566.25
796.629	667.72
797.376	519.1
798.123	550.88
798.87	515
799.616	571.38
800.363	713.84
801.109	702.56
801.856	670.8
802.602	484.24
803.349	707.69
804.095	733.31
804.841	615.45
805.587	619.55
806.333	631.85
807.079	654.4
807.825	620.58
808.57	607.25
809.316	716.91
810.062	629.8
810.807	658.5
811.553	729.21
812.298	675.92
813.043	639.03
813.788	704.61
814.534	615.45
815.279	706.66
816.024	645.17
816.769	635.95
817.514	661.57
818.258	627.75
819.003	708.71
819.748	15536.15
820.492	614.43
821.237	4727.59
821.981	584.7
822.726	709.74
823.47	698.47
824.214	719.99
824.958	641.08
825.702	648.25
826.446	676.95
827.19	667.72
827.934	728.18
828.678	664.65
829.421	738.43
830.165	651.32
830.909	641.08
831.652	608.28
832.395	681.04
833.139	684.12
833.882	789.66
834.625	641.08
835.368	631.85
836.111	559.08
836.854	618.53
837.597	664.65
838.34	661.57
839.083	664.65
839.825	674.9
840.568	545.75
841.311	640.05
842.053	700.52
842.795	557.03
843.538	605.2
844.28	572.4
845.022	540.63
845.764	753.8
846.506	525.25
847.248	593.93
847.99	650.3
848.732	634.93
849.474	595.98
850.215	525.25
850.957	504.75
851.698	570.35
852.44	654.4
853.181	579.58
853.922	708.71
854.664	594.95
855.405	704.61
856.146	517.05
856.887	608.28
857.628	685.14
858.369	523.2
859.109	681.04
859.85	577.53
860.591	677.97
861.331	551.9
862.072	517.05
862.812	493.47
863.553	550.88
864.293	675.92
865.033	574.45
865.773	626.73
866.513	522.17
867.253	550.88
867.993	573.43
868.733	600.08
869.473	628.78
870.213	674.9
870.952	525.25
871.692	589.83
872.431	552.93
873.171	592.9
873.91	562.15
874.649	487.32
875.388	607.25
876.128	588.8
876.867	529.35
877.606	600.08
878.345	587.78
879.083	552.93
879.822	539.6
880.561	603.15
881.299	584.7
882.038	579.58
882.777	657.47
883.515	686.17
884.253	7873.08
884.992	612.38
885.73	594.95
886.468	569.33
887.206	724.08
887.944	647.22
888.682	648.25
889.42	586.75
890.157	614.43
890.895	545.75
891.633	1274.06
892.37	599.05
893.108	635.95
893.845	613.4
894.583	602.13
895.32	527.3
896.057	532.42
896.794	605.2
897.531	652.35
898.268	572.4
899.005	547.8
899.742	576.5
900.479	571.38
901.215	601.1
901.952	571.38
902.689	531.4
903.425	515
904.162	537.55
904.898	607.25
905.634	667.72
906.37	617.5
907.106	502.7
907.843	613.4
908.579	590.85
909.314	457.59
910.05	581.63
910.786	577.53
911.522	518.07
912.257	643.12
912.993	597
913.728	559.08
914.464	586.75
915.199	551.9
915.935	513.97
916.67	556
917.405	624.68
918.14	616.48
918.875	595.98
919.61	661.57
920.345	682.07
921.08	688.22
921.814	599.05
922.549	539.6
923.284	817.33
924.018	563.18
924.752	668.75
925.487	606.23
926.221	634.93
926.955	593.93
927.69	529.35
928.424	592.9
929.158	630.83
929.892	560.1
930.625	614.43
931.359	709.74
932.093	629.8
932.827	552.93
933.56	577.53
934.294	522.17
935.027	611.35
935.761	649.27
936.494	581.63
937.227	561.13
937.96	633.9
938.693	652.35
939.426	537.55
940.159	653.37
940.892	601.1
941.625	683.09
942.358	641.08
943.091	586.75
943.823	533.45
944.556	516.02
945.288	559.08
946.021	635.95
946.753	551.9
947.485	642.1
948.217	600.08
948.95	616.48
949.682	518.07
950.414	540.63
951.146	582.65
951.877	564.2
952.609	585.73
953.341	616.48
954.073	692.32
954.804	610.33
955.536	579.58
956.267	636.98
956.998	550.88
957.73	552.93
958.461	542.68
959.192	528.32
959.923	675.92
960.654	606.23
961.385	571.38
962.116	614.43
962.847	562.15
963.578	587.78
964.308	582.65
965.039	509.87
965.769	609.3
966.5	609.3
967.23	565.23
967.961	605.2
968.691	644.15
969.421	509.87
970.151	649.27
970.881	511.92
971.611	646.2
972.341	620.58
973.071	656.45
973.801	667.72
974.53	570.35
975.26	562.15
975.99	597
976.719	658.5
977.448	565.23
978.178	568.3
978.907	619.55
979.636	533.45
980.365	648.25
981.095	678.99
981.824	636.98
982.553	604.18
983.281	563.18
984.01	6.28
984.739	-22.45
985.468	-52.21
986.196	-80.94
986.925	830.65
987.653	590.85
988.382	690.27
989.11	630.83
989.838	644.15
990.566	716.91
991.295	579.58
992.023	686.17
992.751	688.22
993.478	577.53
994.206	645.17
994.934	598.03
995.662	-3.98
996.389	-48.1
997.117	126.33
997.845	75.03
