Data from SampleKW32_Bg_QEPB07591_00006.txt Node
Date: Thu Aug 22 15:29:19 EDT 2019
User: wcc
Spectrometer: QEPB0759
Trigger mode: 0
Integration Time (sec): 1.749000E0
Scans to average: 1
Electric dark correction enabled: true
Nonlinearity correction enabled: true
Boxcar width: 0
XAxis mode: Wavelengths
Number of Pixels in Spectrum: 1044
>>>>>Begin Spectral Data<<<<<
197.938	635.82
198.749	598.92
199.559	572.27
200.369	552.8
201.179	600.97
201.988	589.7
202.798	709.61
203.608	571.25
204.417	588.67
205.227	548.7
206.036	626.6
206.846	638.9
207.655	662.47
208.464	625.57
209.273	659.39
210.082	579.45
210.891	583.55
211.7	581.5
212.508	578.42
213.317	544.6
214.125	526.15
214.934	581.5
215.742	582.52
216.55	555.87
217.359	539.47
218.167	571.25
218.975	663.49
219.782	555.87
220.59	544.6
221.398	533.32
222.206	733.18
223.013	618.4
223.82	539.47
224.628	551.77
225.435	572.27
226.242	637.87
227.049	638.9
227.856	554.85
228.663	621.47
229.47	585.6
230.277	583.55
231.083	571.25
231.89	556.9
232.696	627.62
233.502	588.67
234.309	559.97
235.115	625.57
235.921	619.42
236.727	522.05
237.533	645.05
238.339	626.6
239.144	605.07
239.95	733.18
240.756	622.5
241.561	608.15
242.366	556.9
243.172	614.3
243.977	665.54
244.782	632.75
245.587	620.45
246.392	634.8
247.197	540.5
248.001	545.62
248.806	559.97
249.611	554.85
250.415	612.25
251.219	590.72
252.024	623.52
252.828	549.72
253.632	557.92
254.436	548.7
255.24	654.27
256.044	661.44
256.848	591.75
257.651	542.55
258.455	585.6
259.258	609.17
260.062	50220.51
260.865	646.07
261.668	619.42
262.471	559.97
263.274	638.9
264.077	556.9
264.88	597.9
265.683	534.35
266.486	580.47
267.288	658.37
268.091	528.2
268.893	587.65
269.696	620.45
270.498	608.15
271.3	604.05
272.102	671.69
272.904	595.85
273.706	600.97
274.508	592.77
275.309	614.3
276.111	605.07
276.913	538.45
277.714	511.79
278.515	565.1
279.317	645.05
280.118	531.27
280.919	600.97
281.72	573.3
282.521	635.82
283.322	557.92
284.122	606.1
284.923	627.62
285.724	591.75
286.524	581.5
287.325	700.39
288.125	530.25
288.925	578.42
289.725	590.72
290.525	691.16
291.325	599.95
292.125	606.1
292.925	638.9
293.724	538.45
294.524	499.49
295.324	534.35
296.123	583.55
296.922	584.57
297.722	866.37
298.521	611.22
299.32	719.86
300.119	527.17
300.918	604.05
301.716	713.71
302.515	592.77
303.314	664.52
304.112	570.22
304.911	698.34
305.709	580.47
306.507	634.8
307.306	599.95
308.104	581.5
308.902	607.12
309.7	594.82
310.498	653.25
311.295	505.64
312.093	631.72
312.891	693.21
313.688	647.1
314.485	590.72
315.283	726.01
316.08	624.55
316.877	585.6
317.674	583.55
318.471	498.47
319.268	567.15
320.065	609.17
320.862	636.85
321.658	605.07
322.455	650.17
323.251	547.67
324.047	551.77
324.844	700.39
325.64	528.2
326.436	594.82
327.232	578.42
328.028	594.82
328.824	547.67
329.62	651.2
330.415	721.91
331.211	605.07
332.006	598.92
332.802	657.34
333.597	590.72
334.392	662.47
335.187	634.8
335.982	565.1
336.777	644.02
337.572	585.6
338.367	632.75
339.162	656.32
339.956	596.87
340.751	631.72
341.545	646.07
342.34	643
343.134	555.87
343.928	656.32
344.722	673.74
345.516	559.97
346.31	552.8
347.104	613.27
347.898	595.85
348.691	606.1
349.485	509.74
350.278	653.25
351.072	711.66
351.865	7227.62
352.658	634.8
353.452	692.19
354.245	573.3
355.038	647.1
355.83	588.67
356.623	578.42
357.416	574.32
358.209	590.72
359.001	567.15
359.794	622.5
360.586	632.75
361.378	656.32
362.17	585.6
362.963	542.55
363.755	691.16
364.546	529.22
365.338	635.82
366.13	643
366.922	608.15
367.713	587.65
368.505	586.62
369.296	580.47
370.088	488.21
370.879	548.7
371.67	597.9
372.461	542.55
373.252	599.95
374.043	691.16
374.834	486.16
375.625	637.87
376.415	662.47
377.206	626.6
377.996	580.47
378.787	692.19
379.577	522.05
380.367	506.67
381.157	623.52
381.947	577.4
382.737	620.45
383.527	618.4
384.317	691.16
385.107	597.9
385.896	655.3
386.686	621.47
387.475	638.9
388.265	569.2
389.054	841.79
389.843	590.72
390.632	604.05
391.421	626.6
392.21	677.84
392.999	548.7
393.788	613.27
394.576	635.82
395.365	606.1
396.154	587.65
396.942	548.7
397.73	612.25
398.519	605.07
399.307	623.52
400.095	603.02
400.883	701.41
401.671	603.02
402.459	622.5
403.246	563.05
404.034	595.85
404.822	574.32
405.609	664.52
406.396	692.19
407.184	530.25
407.971	628.65
408.758	643
409.545	469.76
410.332	648.12
411.119	638.9
411.906	545.62
412.693	640.95
413.479	638.9
414.266	566.12
415.052	638.9
415.839	590.72
416.625	579.45
417.411	655.3
418.197	665.54
418.983	690.14
419.769	662.47
420.555	591.75
421.341	593.8
422.127	610.2
422.912	592.77
423.698	661.44
424.483	576.37
425.269	559.97
426.054	515.89
426.839	621.47
427.624	556.9
428.409	590.72
429.194	608.15
429.979	628.65
430.764	625.57
431.549	600.97
432.333	599.95
433.118	511.79
433.902	630.7
434.687	566.12
435.471	618.4
436.255	604.05
437.039	577.4
437.823	590.72
438.607	586.62
439.391	600.97
440.175	594.82
440.958	581.5
441.742	582.52
442.526	532.3
443.309	615.32
444.092	675.79
444.876	597.9
445.659	598.92
446.442	679.89
447.225	664.52
448.008	680.92
448.791	645.05
449.573	759.82
450.356	681.94
451.139	662.47
451.921	558.95
452.704	626.6
453.486	596.87
454.268	643
455.05	627.62
455.833	597.9
456.615	627.62
457.396	604.05
458.178	633.77
458.96	528.2
459.742	590.72
460.523	573.3
461.305	583.55
462.086	628.65
462.868	704.49
463.649	622.5
464.43	551.77
465.211	700.39
465.992	551.77
466.773	711.66
467.554	603.02
468.335	618.4
469.115	622.5
469.896	524.1
470.676	494.37
471.457	604.05
472.237	617.37
473.018	607.12
473.798	593.8
474.578	633.77
475.358	592.77
476.138	527.17
476.918	533.32
477.697	575.35
478.477	677.84
479.257	608.15
480.036	564.07
480.816	526.15
481.595	618.4
482.374	589.7
483.153	655.3
483.932	609.17
484.711	581.5
485.49	598.92
486.269	558.95
487.048	524.1
487.827	644.02
488.605	569.2
489.384	564.07
490.162	633.77
490.941	670.67
491.719	567.15
492.497	584.57
493.275	572.27
494.053	615.32
494.831	569.2
495.609	605.07
496.387	623.52
497.164	626.6
497.942	609.17
498.72	576.37
499.497	603.02
500.274	518.97
501.052	578.42
501.829	641.97
502.606	556.9
503.383	593.8
504.16	631.72
504.937	619.42
505.714	539.47
506.49	679.89
507.267	520
508.043	614.3
508.82	686.04
509.596	536.4
510.373	565.1
511.149	543.57
511.925	570.22
512.701	606.1
513.477	671.69
514.253	603.02
515.029	579.45
515.804	584.57
516.58	677.84
517.356	589.7
518.131	692.19
518.906	563.05
519.682	602
520.457	584.57
521.232	620.45
522.007	633.77
522.782	556.9
523.557	544.6
524.332	534.35
525.107	687.07
525.881	563.05
526.656	502.57
527.43	536.4
528.205	571.25
528.979	540.5
529.753	572.27
530.527	635.82
531.302	565.1
532.076	596.87
532.849	570.22
533.623	580.47
534.397	538.45
535.171	589.7
535.944	644.02
536.718	525.12
537.491	715.76
538.265	484.11
539.038	609.17
539.811	612.25
540.584	572.27
541.357	583.55
542.13	697.31
542.903	709.61
543.676	596.87
544.449	593.8
545.221	625.57
545.994	580.47
546.766	600.97
547.539	555.87
548.311	621.47
549.083	607.12
549.855	463.61
550.627	666.57
551.399	594.82
552.171	686.04
552.943	630.7
553.715	552.8
554.486	592.77
555.258	544.6
556.029	531.27
556.801	627.62
557.572	523.07
558.343	576.37
559.114	651.2
559.886	625.57
560.657	580.47
561.427	510.77
562.198	535.37
562.969	618.4
563.74	583.55
564.51	559.97
565.281	688.09
566.051	555.87
566.822	572.27
567.592	582.52
568.362	556.9
569.132	567.15
569.902	740.35
570.672	522.05
571.442	626.6
572.212	633.77
572.982	590.72
573.751	620.45
574.521	609.17
575.29	712.68
576.06	631.72
576.829	598.92
577.598	566.12
578.367	534.35
579.136	552.8
579.905	605.07
580.674	669.64
581.443	634.8
582.212	571.25
582.981	650.17
583.749	562.02
584.518	592.77
585.286	690.14
586.054	723.96
586.823	625.57
587.591	552.8
588.359	658.37
589.127	589.7
589.895	693.21
590.663	676.82
591.431	635.82
592.198	638.9
592.966	655.3
593.734	693.21
594.501	584.57
595.268	612.25
596.036	708.59
596.803	557.92
597.57	572.27
598.337	573.3
599.104	577.4
599.871	639.92
600.638	637.87
601.405	665.54
602.171	574.32
602.938	752.65
603.704	542.55
604.471	559.97
605.237	701.41
606.004	596.87
606.77	650.17
607.536	692.19
608.302	671.69
609.068	658.37
609.834	608.15
610.599	662.47
611.365	563.05
612.131	619.42
612.896	659.39
613.662	698.34
614.427	646.07
615.193	610.2
615.958	614.3
616.723	641.97
617.488	494.37
618.253	608.15
619.018	609.17
619.783	564.07
620.548	675.79
621.312	598.92
622.077	557.92
622.842	628.65
623.606	743.43
624.37	606.1
625.135	648.12
625.899	652.22
626.663	579.45
627.427	647.1
628.191	620.45
628.955	700.39
629.719	584.57
630.483	618.4
631.246	516.92
632.01	576.37
632.773	681.94
633.537	559.97
634.3	606.1
635.063	564.07
635.827	522.05
636.59	572.27
637.353	640.95
638.116	655.3
638.879	534.35
639.641	714.73
640.404	627.62
641.167	592.77
641.929	658.37
642.692	539.47
643.454	570.22
644.216	646.07
644.979	640.95
645.741	646.07
646.503	682.97
647.265	659.39
648.027	706.54
648.789	561
649.551	617.37
650.312	622.5
651.074	577.4
651.835	563.05
652.597	618.4
653.358	650.17
654.12	611.22
654.881	587.65
655.642	618.4
656.403	563.05
657.164	653.25
657.925	615.32
658.686	656.32
659.447	543.57
660.207	545.62
660.968	641.97
661.728	693.21
662.489	620.45
663.249	631.72
664.01	589.7
664.77	652.22
665.53	654.27
666.29	550.75
667.05	637.87
667.81	575.35
668.57	579.45
669.329	586.62
670.089	590.72
670.849	615.32
671.608	646.07
672.368	536.4
673.127	641.97
673.886	569.2
674.646	531.27
675.405	609.17
676.164	649.15
676.923	630.7
677.682	728.06
678.44	630.7
679.199	544.6
679.958	813.1
680.717	617.37
681.475	549.72
682.233	587.65
682.992	512.82
683.75	588.67
684.508	647.1
685.266	549.72
686.024	652.22
686.782	578.42
687.54	654.27
688.298	633.77
689.056	689.11
689.814	530.25
690.571	631.72
691.329	605.07
692.086	579.45
692.843	578.42
693.601	627.62
694.358	662.47
695.115	549.72
695.872	557.92
696.629	520
697.386	679.89
698.143	676.82
698.9	543.57
699.656	557.92
700.413	594.82
701.169	654.27
701.926	585.6
702.682	612.25
703.438	564.07
704.195	718.83
704.951	518.97
705.707	527.17
706.463	541.52
707.219	571.25
707.974	549.72
708.73	485.14
709.486	561
710.241	576.37
710.997	577.4
711.752	614.3
712.508	598.92
713.263	585.6
714.018	583.55
714.773	603.02
715.528	728.06
716.283	648.12
717.038	550.75
717.793	614.3
718.548	596.87
719.303	622.5
720.057	583.55
720.812	567.15
721.566	529.22
722.321	585.6
723.075	586.62
723.829	640.95
724.583	579.45
725.337	587.65
726.091	672.72
726.845	623.52
727.599	524.1
728.353	609.17
729.106	537.42
729.86	678.87
730.614	530.25
731.367	5927.47
732.12	583.55
732.874	555.87
733.627	612.25
734.38	632.75
735.133	613.27
735.886	577.4
736.639	567.15
737.392	621.47
738.145	553.82
738.897	674.77
739.65	608.15
740.403	628.65
741.155	644.02
741.907	620.45
742.66	712.68
743.412	521.02
744.164	645.05
744.916	535.37
745.668	611.22
746.42	695.26
747.172	615.32
747.924	611.22
748.676	511.79
749.427	571.25
750.179	644.02
750.93	657.34
751.682	528.2
752.433	632.75
753.184	705.51
753.935	562.02
754.687	542.55
755.438	648.12
756.189	604.05
756.939	556.9
757.69	546.65
758.441	636.85
759.192	609.17
759.942	658.37
760.693	647.1
761.443	628.65
762.194	553.82
762.944	535.37
763.694	632.75
764.444	557.92
765.194	646.07
765.944	627.62
766.694	645.05
767.444	670.67
768.194	640.95
768.943	553.82
769.693	661.44
770.443	624.55
771.192	661.44
771.941	492.32
772.691	647.1
773.44	603.02
774.189	670.67
774.938	627.62
775.687	580.47
776.436	617.37
777.185	635.82
777.934	557.92
778.683	607.12
779.431	600.97
780.18	667.59
780.928	592.77
781.677	597.9
782.425	631.72
783.173	652.22
783.922	640.95
784.67	709.61
785.418	663.49
786.166	691.16
786.914	542.55
787.661	606.1
788.409	612.25
789.157	612.25
789.904	591.75
790.652	666.57
791.399	623.52
792.147	623.52
792.894	671.69
793.641	604.05
794.388	5331.4
795.136	645.05
795.883	575.35
796.629	655.3
797.376	546.65
798.123	556.9
798.87	515.89
799.616	580.47
800.363	716.78
801.109	730.1
801.856	669.64
802.602	502.57
803.349	696.29
804.095	729.08
804.841	618.4
805.587	631.72
806.333	644.02
807.079	655.3
807.825	627.62
808.57	615.32
809.316	724.98
810.062	646.07
810.807	659.39
811.553	733.18
812.298	681.94
813.043	645.05
813.788	703.46
814.534	623.52
815.279	700.39
816.024	651.2
816.769	639.92
817.514	658.37
818.258	623.52
819.003	710.63
819.748	15711.89
820.492	619.42
821.237	4721.37
821.981	609.17
822.726	702.44
823.47	718.83
824.214	716.78
824.958	647.1
825.702	655.3
826.446	672.72
827.19	673.74
827.934	729.08
828.678	659.39
829.421	719.86
830.165	658.37
830.909	631.72
831.652	617.37
832.395	691.16
833.139	687.07
833.882	795.68
834.625	638.9
835.368	620.45
836.111	570.22
836.854	605.07
837.597	656.32
838.34	679.89
839.083	661.44
839.825	682.97
840.568	553.82
841.311	639.92
842.053	705.51
842.795	572.27
843.538	617.37
844.28	563.05
845.022	546.65
845.764	777.24
846.506	536.4
847.248	586.62
847.99	657.34
848.732	657.34
849.474	599.95
850.215	533.32
850.957	513.84
851.698	574.32
852.44	646.07
853.181	585.6
853.922	703.46
854.664	597.9
855.405	700.39
856.146	525.12
856.887	598.92
857.628	696.29
858.369	521.02
859.109	693.21
859.85	584.57
860.591	678.87
861.331	555.87
862.072	513.84
862.812	491.29
863.553	549.72
864.293	685.02
865.033	574.32
865.773	626.6
866.513	528.2
867.253	543.57
867.993	571.25
868.733	607.12
869.473	634.8
870.213	683.99
870.952	542.55
871.692	595.85
872.431	552.8
873.171	593.8
873.91	576.37
874.649	502.57
875.388	606.1
876.128	597.9
876.867	529.22
877.606	597.9
878.345	576.37
879.083	562.02
879.822	535.37
880.561	607.12
881.299	572.27
882.038	585.6
882.777	651.2
883.515	695.26
884.253	8052.59
884.992	602
885.73	598.92
886.468	599.95
887.206	724.98
887.944	634.8
888.682	649.15
889.42	604.05
890.157	619.42
890.895	545.62
891.633	1275.98
892.37	615.32
893.108	634.8
893.845	612.25
894.583	621.47
895.32	520
896.057	546.65
896.794	598.92
897.531	656.32
898.268	582.52
899.005	562.02
899.742	595.85
900.479	576.37
901.215	594.82
901.952	572.27
902.689	531.27
903.425	505.64
904.162	522.05
904.898	603.02
905.634	671.69
906.37	610.2
907.106	517.94
907.843	609.17
908.579	585.6
909.314	458.48
910.05	571.25
910.786	577.4
911.522	503.59
912.257	646.07
912.993	604.05
913.728	554.85
914.464	579.45
915.199	549.72
915.935	516.92
916.67	567.15
917.405	625.57
918.14	620.45
918.875	617.37
919.61	667.59
920.345	677.84
921.08	693.21
921.814	585.6
922.549	565.1
923.284	833.59
924.018	563.05
924.752	675.79
925.487	616.35
926.221	635.82
926.955	595.85
927.69	539.47
928.424	602
929.158	622.5
929.892	557.92
930.625	624.55
931.359	691.16
932.093	626.6
932.827	554.85
933.56	581.5
934.294	508.72
935.027	610.2
935.761	647.1
936.494	574.32
937.227	564.07
937.96	637.87
938.693	654.27
939.426	547.67
940.159	658.37
940.892	606.1
941.625	686.04
942.358	651.2
943.091	577.4
943.823	541.52
944.556	509.74
945.288	573.3
946.021	621.47
946.753	551.77
947.485	646.07
948.217	604.05
948.95	614.3
949.682	529.22
950.414	550.75
951.146	606.1
951.877	571.25
952.609	583.55
953.341	618.4
954.073	695.26
954.804	624.55
955.536	588.67
956.267	638.9
956.998	553.82
957.73	545.62
958.461	538.45
959.192	527.17
959.923	671.69
960.654	610.2
961.385	552.8
962.116	611.22
962.847	564.07
963.578	596.87
964.308	580.47
965.039	510.77
965.769	622.5
966.5	615.32
967.23	571.25
967.961	606.1
968.691	651.2
969.421	502.57
970.151	651.2
970.881	528.2
971.611	658.37
972.341	600.97
973.071	651.2
973.801	666.57
974.53	559.97
975.26	568.17
975.99	594.82
976.719	658.37
977.448	576.37
978.178	570.22
978.907	611.22
979.636	523.07
980.365	653.25
981.095	679.89
981.824	662.47
982.553	597.9
983.281	554.85
984.01	-2.05
984.739	-18.47
985.468	-56.44
986.196	-87.23
986.925	820.27
987.653	592.77
988.382	697.31
989.11	623.52
989.838	644.02
990.566	728.06
991.295	578.42
992.023	674.77
992.751	679.89
993.478	574.32
994.206	641.97
994.934	602
995.662	-14.37
996.389	-46.18
997.117	137.48
997.845	87.21
