Data from SampleKW32_QEPB07591_00009.txt Node
Date: Thu Aug 22 15:28:33 EDT 2019
User: wcc
Spectrometer: QEPB0759
Trigger mode: 0
Integration Time (sec): 1.749000E0
Scans to average: 1
Electric dark correction enabled: true
Nonlinearity correction enabled: true
Boxcar width: 0
XAxis mode: Wavelengths
Number of Pixels in Spectrum: 1044
>>>>>Begin Spectral Data<<<<<
197.938	633
198.749	605.33
199.559	568.43
200.369	556.13
201.179	595.08
201.988	590.98
202.798	701.67
203.608	565.36
204.417	589.96
205.227	549.98
206.036	621.73
206.846	627.88
207.655	666.82
208.464	625.83
209.273	666.82
210.082	562.28
210.891	580.73
211.7	585.86
212.508	567.41
213.317	541.78
214.125	515.13
214.934	568.43
215.742	570.48
216.55	557.15
217.359	521.28
218.167	558.18
218.975	656.58
219.782	552.03
220.59	546.9
221.398	527.43
222.206	708.84
223.013	590.98
223.82	537.68
224.628	540.75
225.435	581.76
226.242	619.68
227.049	625.83
227.856	543.83
228.663	601.23
229.47	603.28
230.277	594.06
231.083	570.48
231.89	564.33
232.696	615.58
233.502	575.61
234.309	560.23
235.115	621.73
235.921	600.21
236.727	504.87
237.533	645.3
238.339	633
239.144	608.41
239.95	730.36
240.756	614.56
241.561	610.46
242.366	551
243.172	622.75
243.977	663.75
244.782	629.93
245.587	618.65
246.392	639.15
247.197	525.38
248.001	534.6
248.806	572.53
249.611	560.23
250.415	601.23
251.219	588.93
252.024	621.73
252.828	556.13
253.632	553.05
254.436	541.78
255.24	642.23
256.044	661.7
256.848	572.53
257.651	538.7
258.455	600.21
259.258	597.13
260.062	49305.65
260.865	637.1
261.668	624.8
262.471	565.36
263.274	631.98
264.077	536.65
264.88	595.08
265.683	525.38
266.486	581.76
267.288	665.8
268.091	517.18
268.893	581.76
269.696	609.43
270.498	603.28
271.3	586.88
272.102	670.92
272.904	580.73
273.706	598.16
274.508	586.88
275.309	615.58
276.111	610.46
276.913	535.63
277.714	522.3
278.515	553.05
279.317	655.55
280.118	534.6
280.919	593.03
281.72	571.51
282.521	636.08
283.322	553.05
284.122	609.43
284.923	628.9
285.724	563.31
286.524	571.51
287.325	710.89
288.125	531.53
288.925	574.58
289.725	594.06
290.525	685.27
291.325	597.13
292.125	606.36
292.925	639.15
293.724	545.88
294.524	519.23
295.324	524.35
296.123	603.28
296.922	597.13
297.722	873.8
298.521	603.28
299.32	714.99
300.119	511.03
300.918	606.36
301.716	720.11
302.515	581.76
303.314	672.97
304.112	585.86
304.911	703.72
305.709	588.93
306.507	649.4
307.306	594.06
308.104	574.58
308.902	589.96
309.7	586.88
310.498	658.63
311.295	500.77
312.093	634.03
312.891	688.35
313.688	649.4
314.485	599.18
315.283	720.11
316.08	616.61
316.877	566.38
317.674	582.78
318.471	490.52
319.268	569.46
320.065	625.83
320.862	644.28
321.658	584.83
322.455	650.43
323.251	559.21
324.047	543.83
324.844	708.84
325.64	530.5
326.436	602.26
327.232	585.86
328.028	587.91
328.824	551
329.62	641.2
330.415	724.21
331.211	613.53
332.006	590.98
332.802	666.82
333.597	581.76
334.392	668.87
335.187	621.73
335.982	557.15
336.777	642.23
337.572	579.71
338.367	618.65
339.162	651.45
339.956	580.73
340.751	624.8
341.545	650.43
342.34	654.53
343.134	543.83
343.928	667.85
344.722	672.97
345.516	560.23
346.31	559.21
347.104	619.68
347.898	607.38
348.691	599.18
349.485	513.08
350.278	643.25
351.072	711.92
351.865	7211.7
352.658	620.7
353.452	687.32
354.245	575.61
355.038	648.38
355.83	601.23
356.623	567.41
357.416	568.43
358.209	578.68
359.001	562.28
359.794	605.33
360.586	628.9
361.378	653.5
362.17	581.76
362.963	541.78
363.755	689.37
364.546	513.08
365.338	631.98
366.13	641.2
366.922	600.21
367.713	582.78
368.505	590.98
369.296	570.48
370.088	486.42
370.879	552.03
371.67	601.23
372.461	544.85
373.252	588.93
374.043	670.92
374.834	490.52
375.625	627.88
376.415	675.02
377.206	612.51
377.996	575.61
378.787	705.77
379.577	529.48
380.367	502.82
381.157	612.51
381.947	573.56
382.737	614.56
383.527	618.65
384.317	693.47
385.107	589.96
385.896	648.38
386.686	608.41
387.475	644.28
388.265	574.58
389.054	841.02
389.843	587.91
390.632	596.11
391.421	631.98
392.21	679.12
392.999	572.53
393.788	627.88
394.576	649.4
395.365	633
396.154	603.28
396.942	598.16
397.73	622.75
398.519	635.05
399.307	647.35
400.095	637.1
400.883	729.34
401.671	631.98
402.459	664.78
403.246	574.58
404.034	636.08
404.822	612.51
405.609	716.01
406.396	727.29
407.184	587.91
407.971	690.4
408.758	680.15
409.545	515.13
410.332	699.62
411.119	693.47
411.906	584.83
412.693	680.15
413.479	722.16
414.266	631.98
415.052	703.72
415.839	664.78
416.625	629.93
417.411	728.31
418.197	750.85
418.983	786.72
419.769	728.31
420.555	675.02
421.341	691.42
422.127	686.3
422.912	664.78
423.698	760.08
424.483	653.5
425.269	656.58
426.054	604.31
426.839	706.79
427.624	643.25
428.409	690.4
429.194	700.64
429.979	738.56
430.764	743.68
431.549	738.56
432.333	710.89
433.118	631.98
433.902	766.22
434.687	694.49
435.471	757
436.255	755.98
437.039	735.48
437.823	751.88
438.607	731.39
439.391	750.85
440.175	772.37
440.958	730.36
441.742	753.93
442.526	698.59
443.309	772.37
444.092	857.41
444.876	775.45
445.659	769.3
446.442	880.97
447.225	845.12
448.008	888.14
448.791	869.7
449.573	962.92
450.356	922.97
451.139	892.24
451.921	801.06
452.704	867.65
453.486	826.68
454.268	900.43
455.05	868.68
455.833	845.12
456.615	891.22
457.396	878.92
458.178	918.87
458.96	800.04
459.742	884.04
460.523	844.09
461.305	854.34
462.086	925.02
462.868	1010.03
463.649	905.56
464.43	839.99
465.211	991.59
465.992	866.63
466.773	1056.11
467.554	928.09
468.335	954.72
469.115	945.5
469.896	819.5
470.676	783.64
471.457	909.65
472.237	920.92
473.018	913.75
473.798	875.85
474.578	867.65
475.358	812.33
476.138	752.9
476.918	755.98
477.697	788.77
478.477	891.22
479.257	832.82
480.036	775.45
480.816	726.26
481.595	809.26
482.374	787.74
483.153	837.94
483.932	790.82
484.711	764.18
485.49	773.4
486.269	708.84
487.048	660.68
487.827	797.99
488.605	714.99
489.384	695.52
490.162	752.9
490.941	812.33
491.719	706.79
492.497	719.09
493.275	697.57
494.053	746.76
494.831	669.9
495.609	706.79
496.387	714.99
497.164	720.11
497.942	681.17
498.72	653.5
499.497	661.7
500.274	590.98
501.052	642.23
501.829	695.52
502.606	620.7
503.383	652.48
504.16	664.78
504.937	669.9
505.714	584.83
506.49	723.19
507.267	546.9
508.043	643.25
508.82	701.67
509.596	556.13
510.373	576.63
511.149	542.8
511.925	592.01
512.701	618.65
513.477	689.37
514.253	597.13
515.029	570.48
515.804	596.11
516.58	689.37
517.356	582.78
518.131	703.72
518.906	549.98
519.682	612.51
520.457	580.73
521.232	621.73
522.007	624.8
522.782	556.13
523.557	546.9
524.332	547.93
525.107	675.02
525.881	556.13
526.656	512.05
527.43	542.8
528.205	557.15
528.979	533.58
529.753	561.26
530.527	640.18
531.302	556.13
532.076	600.21
532.849	574.58
533.623	586.88
534.397	541.78
535.171	604.31
535.944	648.38
536.718	522.3
537.491	711.92
538.265	492.57
539.038	620.7
539.811	622.75
540.584	571.51
541.357	584.83
542.13	685.27
542.903	701.67
543.676	596.11
544.449	598.16
545.221	627.88
545.994	576.63
546.766	598.16
547.539	562.28
548.311	624.8
549.083	604.31
549.855	447.46
550.627	648.38
551.399	604.31
552.171	680.15
552.943	629.93
553.715	552.03
554.486	590.98
555.258	546.9
556.029	527.43
556.801	607.38
557.572	529.48
558.343	559.21
559.114	646.33
559.886	648.38
560.657	579.71
561.427	488.47
562.198	538.7
562.969	610.46
563.74	586.88
564.51	563.31
565.281	685.27
566.051	555.1
566.822	567.41
567.592	587.91
568.362	560.23
569.132	569.46
569.902	741.63
570.672	529.48
571.442	616.61
572.212	627.88
572.982	568.43
573.751	625.83
574.521	589.96
575.29	700.64
576.06	629.93
576.829	593.03
577.598	573.56
578.367	521.28
579.136	556.13
579.905	628.9
580.674	653.5
581.443	619.68
582.212	576.63
582.981	659.65
583.749	552.03
584.518	586.88
585.286	668.87
586.054	723.19
586.823	630.95
587.591	545.88
588.359	635.05
589.127	605.33
589.895	675.02
590.663	683.22
591.431	637.1
592.198	659.65
592.966	664.78
593.734	709.87
594.501	609.43
595.268	652.48
596.036	734.46
596.803	611.48
597.57	648.38
598.337	656.58
599.104	686.3
599.871	789.79
600.638	810.28
601.405	863.56
602.171	799.01
602.938	1036.66
603.704	856.39
604.471	906.58
605.237	1080.69
606.004	1018.22
606.77	1130.86
607.536	1208.67
608.302	1208.67
609.068	1232.22
609.834	1224.03
610.599	1294.66
611.365	1241.43
612.131	1313.08
612.896	1400.07
613.662	1444.07
614.427	1389.83
615.193	1403.14
615.958	1411.32
616.723	1469.65
617.488	1345.83
618.253	1465.55
619.018	1451.23
619.783	1426.67
620.548	1551.49
621.312	1474.76
622.077	1433.83
622.842	1507.5
623.606	1642.53
624.37	1465.55
625.135	1520.8
625.899	1521.82
626.663	1465.55
627.427	1518.75
628.191	1491.13
628.955	1569.9
629.719	1464.53
630.483	1460.44
631.246	1361.18
632.01	1403.14
632.773	1515.69
633.537	1381.65
634.3	1438.95
635.063	1378.58
635.827	1323.31
636.59	1357.09
637.353	1421.56
638.116	1441
638.879	1287.49
639.641	1492.15
640.404	1383.69
641.167	1344.81
641.929	1395.97
642.692	1255.76
643.454	1285.44
644.216	1365.27
644.979	1368.34
645.741	1324.34
646.503	1392.9
647.265	1360.16
648.027	1392.9
648.789	1255.76
649.551	1294.66
650.312	1300.8
651.074	1252.69
651.835	1227.1
652.597	1257.81
653.358	1292.61
654.12	1249.62
654.881	1215.84
655.642	1243.48
656.403	1205.6
657.164	1260.88
657.925	1227.1
658.686	1295.68
659.447	1165.67
660.207	1171.82
660.968	1254.74
661.728	1304.89
662.489	1248.59
663.249	1258.83
664.01	1207.65
664.77	1280.33
665.53	1276.23
666.29	1210.72
667.05	1282.37
667.81	1208.67
668.57	1228.12
669.329	1218.91
670.089	1227.1
670.849	1248.59
671.608	1290.56
672.368	1187.17
673.127	1280.33
673.886	1200.48
674.646	1169.77
675.405	1246.55
676.164	1262.92
676.923	1262.92
677.682	1322.29
678.44	1241.43
679.199	1152.36
679.958	1430.77
680.717	1230.17
681.475	1169.77
682.233	1214.81
682.992	1145.2
683.75	1213.79
684.508	1257.81
685.266	1133.93
686.024	1231.19
686.782	1164.65
687.54	1213.79
688.298	1196.39
689.056	1242.45
689.814	1083.76
690.571	1167.72
691.329	1122.67
692.086	1099.12
692.843	1070.45
693.601	1135.98
694.358	1137.01
695.115	1014.13
695.872	1026.42
696.629	985.45
697.386	1124.72
698.143	1130.86
698.9	997.74
699.656	984.43
700.413	1019.25
701.169	1061.23
701.926	1011.05
702.682	1013.1
703.438	973.16
704.195	1113.46
704.951	935.26
705.707	950.63
706.463	936.29
707.219	973.16
707.974	946.53
708.73	894.29
709.486	975.21
710.241	973.16
710.997	980.33
711.752	989.55
712.508	987.5
713.263	971.11
714.018	956.77
714.773	953.7
715.528	1048.95
716.283	985.45
717.038	876.87
717.793	919.9
718.548	889.17
719.303	905.56
720.057	833.85
720.812	813.36
721.566	780.57
722.321	844.09
723.075	825.65
723.829	872.78
724.583	811.31
725.337	806.18
726.091	888.14
726.845	849.21
727.599	731.39
728.353	819.5
729.106	754.95
729.86	873.8
730.614	722.16
731.367	6422.88
732.12	815.41
732.874	749.83
733.627	818.48
734.38	824.63
735.133	801.06
735.886	747.78
736.639	729.34
737.392	776.47
738.145	725.24
738.897	835.9
739.65	766.22
740.403	777.5
741.155	783.64
741.907	772.37
742.66	836.92
743.412	637.1
744.164	745.73
744.916	619.68
745.668	681.17
746.42	727.29
747.172	634.03
747.924	612.51
748.676	532.55
749.427	573.56
750.179	628.9
750.93	649.4
751.682	531.53
752.433	650.43
753.184	697.57
753.935	576.63
754.687	542.8
755.438	635.05
756.189	600.21
756.939	552.03
757.69	536.65
758.441	651.45
759.192	598.16
759.942	656.58
760.693	645.3
761.443	622.75
762.194	557.15
762.944	551
763.694	645.3
764.444	559.21
765.194	634.03
765.944	623.78
766.694	637.1
767.444	677.07
768.194	642.23
768.943	555.1
769.693	652.48
770.443	614.56
771.192	660.68
771.941	488.47
772.691	637.1
773.44	604.31
774.189	659.65
774.938	617.63
775.687	578.68
776.436	605.33
777.185	635.05
777.934	568.43
778.683	610.46
779.431	597.13
780.18	659.65
780.928	580.73
781.677	590.98
782.425	631.98
783.173	663.75
783.922	641.2
784.67	725.24
785.418	671.95
786.166	708.84
786.914	546.9
787.661	615.58
788.409	605.33
789.157	597.13
789.904	593.03
790.652	661.7
791.399	642.23
792.147	631.98
792.894	666.82
793.641	601.23
794.388	5495.95
795.136	644.28
795.883	581.76
796.629	663.75
797.376	529.48
798.123	555.1
798.87	521.28
799.616	577.66
800.363	707.82
801.109	705.77
801.856	653.5
802.602	490.52
803.349	686.3
804.095	723.19
804.841	611.48
805.587	612.51
806.333	631.98
807.079	664.78
807.825	627.88
808.57	612.51
809.316	716.01
810.062	625.83
810.807	665.8
811.553	748.81
812.298	674
813.043	626.85
813.788	698.59
814.534	607.38
815.279	694.49
816.024	642.23
816.769	634.03
817.514	657.6
818.258	628.9
819.003	717.04
819.748	16064.78
820.492	620.7
821.237	4722.64
821.981	594.06
822.726	700.64
823.47	712.94
824.214	707.82
824.958	636.08
825.702	650.43
826.446	652.48
827.19	671.95
827.934	718.06
828.678	657.6
829.421	734.46
830.165	664.78
830.909	626.85
831.652	608.41
832.395	689.37
833.139	698.59
833.882	784.67
834.625	637.1
835.368	626.85
836.111	561.26
836.854	613.53
837.597	660.68
838.34	662.73
839.083	669.9
839.825	690.4
840.568	539.73
841.311	636.08
842.053	702.69
842.795	576.63
843.538	608.41
844.28	558.18
845.022	547.93
845.764	775.45
846.506	532.55
847.248	580.73
847.99	647.35
848.732	638.13
849.474	602.26
850.215	540.75
850.957	492.57
851.698	565.36
852.44	664.78
853.181	593.03
853.922	684.25
854.664	597.13
855.405	702.69
856.146	518.2
856.887	608.41
857.628	696.54
858.369	525.38
859.109	690.4
859.85	588.93
860.591	664.78
861.331	545.88
862.072	508.97
862.812	491.55
863.553	546.9
864.293	680.15
865.033	574.58
865.773	610.46
866.513	545.88
867.253	549.98
867.993	577.66
868.733	606.36
869.473	627.88
870.213	674
870.952	529.48
871.692	588.93
872.431	543.83
873.171	588.93
873.91	577.66
874.649	493.6
875.388	601.23
876.128	595.08
876.867	523.33
877.606	614.56
878.345	570.48
879.083	549.98
879.822	536.65
880.561	605.33
881.299	575.61
882.038	580.73
882.777	650.43
883.515	678.1
884.253	7889.36
884.992	613.53
885.73	588.93
886.468	608.41
887.206	723.19
887.944	629.93
888.682	645.3
889.42	611.48
890.157	621.73
890.895	554.08
891.633	1283.4
892.37	606.36
893.108	636.08
893.845	610.46
894.583	614.56
895.32	528.45
896.057	531.53
896.794	609.43
897.531	646.33
898.268	566.38
899.005	548.95
899.742	574.58
900.479	572.53
901.215	589.96
901.952	571.51
902.689	535.63
903.425	510
904.162	526.4
904.898	599.18
905.634	675.02
906.37	596.11
907.106	518.2
907.843	618.65
908.579	577.66
909.314	460.79
910.05	567.41
910.786	583.81
911.522	514.1
912.257	629.93
912.993	589.96
913.728	560.23
914.464	578.68
915.199	555.1
915.935	515.13
916.67	556.13
917.405	614.56
918.14	612.51
918.875	616.61
919.61	674
920.345	668.87
921.08	680.15
921.814	600.21
922.549	553.05
923.284	814.38
924.018	567.41
924.752	676.05
925.487	609.43
926.221	627.88
926.955	593.03
927.69	527.43
928.424	582.78
929.158	626.85
929.892	557.15
930.625	623.78
931.359	693.47
932.093	640.18
932.827	559.21
933.56	568.43
934.294	506.92
935.027	620.7
935.761	652.48
936.494	587.91
937.227	551
937.96	628.9
938.693	652.48
939.426	536.65
940.159	646.33
940.892	606.36
941.625	684.25
942.358	659.65
943.091	575.61
943.823	536.65
944.556	510
945.288	564.33
946.021	623.78
946.753	569.46
947.485	649.4
948.217	599.18
948.95	609.43
949.682	526.4
950.414	543.83
951.146	587.91
951.877	566.38
952.609	594.06
953.341	613.53
954.073	681.17
954.804	609.43
955.536	578.68
956.267	608.41
956.998	544.85
957.73	544.85
958.461	553.05
959.192	518.2
959.923	683.22
960.654	619.68
961.385	564.33
962.116	600.21
962.847	559.21
963.578	601.23
964.308	579.71
965.039	519.23
965.769	603.28
966.5	607.38
967.23	564.33
967.961	610.46
968.691	635.05
969.421	508.97
970.151	649.4
970.881	528.45
971.611	652.48
972.341	600.21
973.071	652.48
973.801	680.15
974.53	564.33
975.26	569.46
975.99	608.41
976.719	648.38
977.448	572.53
978.178	582.78
978.907	609.43
979.636	525.38
980.365	649.4
981.095	677.07
981.824	642.23
982.553	609.43
983.281	546.9
984.01	7.44
984.739	-22.32
985.468	-39.76
986.196	-82.86
986.925	820.53
987.653	590.98
988.382	688.35
989.11	631.98
989.838	652.48
990.566	710.89
991.295	574.58
992.023	669.9
992.751	689.37
993.478	572.53
994.206	639.15
994.934	596.11
995.662	-14.11
996.389	-56.18
997.117	135.69
997.845	72.08
