Data from SampleKW32_Bg_QEPB07591_00007.txt Node
Date: Thu Aug 22 15:29:21 EDT 2019
User: wcc
Spectrometer: QEPB0759
Trigger mode: 0
Integration Time (sec): 1.749000E0
Scans to average: 1
Electric dark correction enabled: true
Nonlinearity correction enabled: true
Boxcar width: 0
XAxis mode: Wavelengths
Number of Pixels in Spectrum: 1044
>>>>>Begin Spectral Data<<<<<
197.938	641.72
198.749	602.77
199.559	568.94
200.369	559.72
201.179	595.59
201.988	594.57
202.798	698.08
203.608	573.04
204.417	588.42
205.227	543.32
206.036	624.29
206.846	618.14
207.655	660.16
208.464	627.37
209.273	665.29
210.082	570.99
210.891	584.32
211.7	582.27
212.508	580.22
213.317	544.34
214.125	528.96
214.934	566.89
215.742	575.09
216.55	559.72
217.359	528.96
218.167	553.57
218.975	654.01
219.782	545.37
220.59	529.99
221.398	528.96
222.206	720.63
223.013	605.84
223.82	550.49
224.628	556.64
225.435	580.22
226.242	623.27
227.049	621.22
227.856	558.69
228.663	618.14
229.47	588.42
230.277	589.44
231.083	580.22
231.89	552.54
232.696	610.97
233.502	574.07
234.309	552.54
235.115	630.44
235.921	595.59
236.727	526.91
237.533	650.94
238.339	634.54
239.144	622.24
239.95	720.63
240.756	628.39
241.561	608.92
242.366	553.57
243.172	622.24
243.977	663.24
244.782	614.04
245.587	625.32
246.392	629.42
247.197	525.89
248.001	526.91
248.806	568.94
249.611	552.54
250.415	613.02
251.219	599.69
252.024	613.02
252.828	563.82
253.632	566.89
254.436	547.42
255.24	649.91
256.044	660.16
256.848	569.97
257.651	556.64
258.455	595.59
259.258	611.99
260.062	50290.83
260.865	658.11
261.668	621.22
262.471	546.39
263.274	623.27
264.077	542.29
264.88	596.62
265.683	544.34
266.486	583.29
267.288	663.24
268.091	518.71
268.893	575.09
269.696	620.19
270.498	603.79
271.3	594.57
272.102	669.39
272.904	594.57
273.706	593.54
274.508	605.84
275.309	622.24
276.111	605.84
276.913	528.96
277.714	501.29
278.515	559.72
279.317	661.19
280.118	533.07
280.919	590.47
281.72	578.17
282.521	624.29
283.322	569.97
284.122	623.27
284.923	628.39
285.724	582.27
286.524	596.62
287.325	690.91
288.125	540.24
288.925	567.92
289.725	599.69
290.525	681.68
291.325	599.69
292.125	621.22
292.925	633.52
293.724	539.22
294.524	516.66
295.324	544.34
296.123	582.27
296.922	585.34
297.722	873.29
298.521	593.54
299.32	686.81
300.119	521.79
300.918	616.09
301.716	718.58
302.515	589.44
303.314	673.49
304.112	575.09
304.911	704.23
305.709	590.47
306.507	643.77
307.306	581.24
308.104	592.52
308.902	604.82
309.7	584.32
310.498	646.84
311.295	503.34
312.093	652.99
312.891	685.78
313.688	631.47
314.485	594.57
315.283	712.43
316.08	615.07
316.877	591.49
317.674	577.14
318.471	490.01
319.268	565.87
320.065	619.17
320.862	622.24
321.658	593.54
322.455	664.26
323.251	548.44
324.047	549.47
324.844	702.18
325.64	534.09
326.436	609.94
327.232	589.44
328.028	595.59
328.824	538.19
329.62	632.49
330.415	733.95
331.211	618.14
332.006	594.57
332.802	666.31
333.597	590.47
334.392	660.16
335.187	629.42
335.982	556.64
336.777	625.32
337.572	575.09
338.367	626.34
339.162	648.89
339.956	603.79
340.751	615.07
341.545	631.47
342.34	647.86
343.134	554.59
343.928	668.36
344.722	661.19
345.516	559.72
346.31	564.84
347.104	611.99
347.898	598.67
348.691	588.42
349.485	511.54
350.278	629.42
351.072	706.28
351.865	7222.31
352.658	621.22
353.452	682.71
354.245	567.92
355.038	636.59
355.83	597.64
356.623	568.94
357.416	578.17
358.209	588.42
359.001	581.24
359.794	610.97
360.586	641.72
361.378	649.91
362.17	575.09
362.963	543.32
363.755	676.56
364.546	512.56
365.338	626.34
366.13	636.59
366.922	596.62
367.713	584.32
368.505	592.52
369.296	572.02
370.088	496.16
370.879	545.37
371.67	600.72
372.461	546.39
373.252	590.47
374.043	664.26
374.834	497.19
375.625	645.82
376.415	651.96
377.206	618.14
377.996	577.14
378.787	703.21
379.577	508.46
380.367	504.36
381.157	609.94
381.947	570.99
382.737	615.07
383.527	623.27
384.317	688.86
385.107	585.34
385.896	667.34
386.686	613.02
387.475	644.79
388.265	581.24
389.054	834.36
389.843	583.29
390.632	588.42
391.421	628.39
392.21	664.26
392.999	545.37
393.788	606.87
394.576	626.34
395.365	611.99
396.154	587.39
396.942	569.97
397.73	592.52
398.519	608.92
399.307	614.04
400.095	608.92
400.883	693.98
401.671	595.59
402.459	609.94
403.246	547.42
404.034	589.44
404.822	569.97
405.609	665.29
406.396	693.98
407.184	521.79
407.971	633.52
408.758	622.24
409.545	457.2
410.332	646.84
411.119	658.11
411.906	539.22
412.693	615.07
413.479	651.96
414.266	577.14
415.052	625.32
415.839	592.52
416.625	574.07
417.411	644.79
418.197	670.41
418.983	699.11
419.769	650.94
420.555	587.39
421.341	583.29
422.127	589.44
422.912	582.27
423.698	670.41
424.483	580.22
425.269	564.84
426.054	516.66
426.839	615.07
427.624	558.69
428.409	587.39
429.194	589.44
429.979	635.57
430.764	620.19
431.549	596.62
432.333	595.59
433.118	516.66
433.902	622.24
434.687	573.04
435.471	611.99
436.255	610.97
437.039	578.17
437.823	598.67
438.607	582.27
439.391	595.59
440.175	614.04
440.958	568.94
441.742	591.49
442.526	529.99
443.309	607.89
444.092	673.49
444.876	605.84
445.659	588.42
446.442	674.51
447.225	650.94
448.008	676.56
448.791	647.86
449.573	725.75
450.356	675.54
451.139	642.74
451.921	551.52
452.704	625.32
453.486	591.49
454.268	643.77
455.05	622.24
455.833	574.07
456.615	628.39
457.396	606.87
458.178	640.69
458.96	536.14
459.742	592.52
460.523	576.12
461.305	569.97
462.086	622.24
462.868	709.35
463.649	615.07
464.43	563.82
465.211	701.16
465.992	557.67
466.773	714.48
467.554	594.57
468.335	613.02
469.115	627.37
469.896	533.07
470.676	497.19
471.457	620.19
472.237	620.19
473.018	609.94
473.798	595.59
474.578	633.52
475.358	569.97
476.138	526.91
476.918	538.19
477.697	574.07
478.477	672.46
479.257	610.97
480.036	565.87
480.816	527.94
481.595	618.14
482.374	587.39
483.153	655.04
483.932	605.84
484.711	589.44
485.49	608.92
486.269	564.84
487.048	512.56
487.827	634.54
488.605	564.84
489.384	549.47
490.162	618.14
490.941	675.54
491.719	562.79
492.497	583.29
493.275	574.07
494.053	607.89
494.831	555.62
495.609	601.74
496.387	617.12
497.164	618.14
497.942	606.87
498.72	572.02
499.497	602.77
500.274	516.66
501.052	579.19
501.829	642.74
502.606	550.49
503.383	598.67
504.16	627.37
504.937	620.19
505.714	536.14
506.49	674.51
507.267	513.59
508.043	622.24
508.82	677.59
509.596	544.34
510.373	555.62
511.149	541.27
511.925	576.12
512.701	596.62
513.477	665.29
514.253	588.42
515.029	587.39
515.804	588.42
516.58	671.44
517.356	595.59
518.131	676.56
518.906	557.67
519.682	610.97
520.457	577.14
521.232	615.07
522.007	624.29
522.782	551.52
523.557	526.91
524.332	529.99
525.107	671.44
525.881	566.89
526.656	503.34
527.43	527.94
528.205	565.87
528.979	522.81
529.753	576.12
530.527	633.52
531.302	568.94
532.076	605.84
532.849	564.84
533.623	583.29
534.397	534.09
535.171	592.52
535.944	651.96
536.718	514.61
537.491	714.48
538.265	487.96
539.038	610.97
539.811	618.14
540.584	581.24
541.357	573.04
542.13	695.01
542.903	699.11
543.676	589.44
544.449	599.69
545.221	621.22
545.994	572.02
546.766	597.64
547.539	551.52
548.311	619.17
549.083	601.74
549.855	435.67
550.627	651.96
551.399	597.64
552.171	679.64
552.943	627.37
553.715	539.22
554.486	584.32
555.258	546.39
556.029	529.99
556.801	609.94
557.572	525.89
558.343	558.69
559.114	660.16
559.886	636.59
560.657	581.24
561.427	505.39
562.198	546.39
562.969	611.99
563.74	589.44
564.51	546.39
565.281	687.83
566.051	560.74
566.822	556.64
567.592	590.47
568.362	554.59
569.132	569.97
569.902	753.42
570.672	541.27
571.442	623.27
572.212	618.14
572.982	594.57
573.751	607.89
574.521	599.69
575.29	711.4
576.06	632.49
576.829	591.49
577.598	575.09
578.367	523.84
579.136	547.42
579.905	613.02
580.674	657.09
581.443	634.54
582.212	565.87
582.981	655.04
583.749	567.92
584.518	587.39
585.286	681.68
586.054	726.77
586.823	631.47
587.591	563.82
588.359	663.24
589.127	600.72
589.895	671.44
590.663	685.78
591.431	640.69
592.198	628.39
592.966	640.69
593.734	678.61
594.501	585.34
595.268	613.02
596.036	696.03
596.803	560.74
597.57	579.19
598.337	561.77
599.104	548.44
599.871	638.64
600.638	640.69
601.405	668.36
602.171	561.77
602.938	768.79
603.704	532.04
604.471	562.79
605.237	685.78
606.004	591.49
606.77	654.01
607.536	682.71
608.302	661.19
609.068	649.91
609.834	610.97
610.599	642.74
611.365	560.74
612.131	611.99
612.896	642.74
613.662	684.76
614.427	639.67
615.193	604.82
615.958	605.84
616.723	641.72
617.488	501.29
618.253	605.84
619.018	614.04
619.783	563.82
620.548	664.26
621.312	598.67
622.077	563.82
622.842	625.32
623.606	744.19
624.37	596.62
625.135	656.06
625.899	638.64
626.663	588.42
627.427	650.94
628.191	619.17
628.955	688.86
629.719	592.52
630.483	610.97
631.246	527.94
632.01	580.22
632.773	673.49
633.537	552.54
634.3	595.59
635.063	578.17
635.827	514.61
636.59	563.82
637.353	629.42
638.116	640.69
638.879	540.24
639.641	705.25
640.404	628.39
641.167	590.47
641.929	657.09
642.692	539.22
643.454	565.87
644.216	651.96
644.979	630.44
645.741	622.24
646.503	677.59
647.265	661.19
648.027	708.33
648.789	557.67
649.551	586.37
650.312	609.94
651.074	581.24
651.835	573.04
652.597	622.24
653.358	641.72
654.12	615.07
654.881	581.24
655.642	625.32
656.403	577.14
657.164	648.89
657.925	607.89
658.686	655.04
659.447	548.44
660.207	564.84
660.968	626.34
661.728	689.88
662.489	630.44
663.249	613.02
664.01	577.14
664.77	659.14
665.53	641.72
666.29	549.47
667.05	648.89
667.81	572.02
668.57	575.09
669.329	587.39
670.089	586.37
670.849	604.82
671.608	635.57
672.368	541.27
673.127	646.84
673.886	564.84
674.646	524.86
675.405	609.94
676.164	639.67
676.923	645.82
677.682	715.5
678.44	636.59
679.199	545.37
679.958	810.79
680.717	623.27
681.475	561.77
682.233	575.09
682.992	513.59
683.75	596.62
684.508	639.67
685.266	546.39
686.024	646.84
686.782	586.37
687.54	656.06
688.298	637.62
689.056	684.76
689.814	527.94
690.571	626.34
691.329	600.72
692.086	582.27
692.843	565.87
693.601	643.77
694.358	664.26
695.115	553.57
695.872	549.47
696.629	527.94
697.386	667.34
698.143	677.59
698.9	544.34
699.656	557.67
700.413	593.54
701.169	654.01
701.926	581.24
702.682	598.67
703.438	565.87
704.195	696.03
704.951	522.81
705.707	548.44
706.463	528.96
707.219	580.22
707.974	545.37
708.73	491.03
709.486	554.59
710.241	585.34
710.997	568.94
711.752	616.09
712.508	595.59
713.263	583.29
714.018	583.29
714.773	602.77
715.528	707.3
716.283	657.09
717.038	550.49
717.793	608.92
718.548	596.62
719.303	611.99
720.057	572.02
720.812	562.79
721.566	524.86
722.321	585.34
723.075	574.07
723.829	629.42
724.583	570.99
725.337	590.47
726.091	664.26
726.845	634.54
727.599	520.76
728.353	604.82
729.106	542.29
729.86	679.64
730.614	527.94
731.367	6106.51
732.12	583.29
732.874	547.42
733.627	611.99
734.38	637.62
735.133	609.94
735.886	566.89
736.639	558.69
737.392	603.79
738.145	554.59
738.897	678.61
739.65	608.92
740.403	614.04
741.155	622.24
741.907	626.34
742.66	688.86
743.412	505.39
744.164	646.84
744.916	513.59
745.668	605.84
746.42	695.01
747.172	609.94
747.924	599.69
748.676	525.89
749.427	574.07
750.179	630.44
750.93	651.96
751.682	537.17
752.433	646.84
753.184	699.11
753.935	565.87
754.687	543.32
755.438	635.57
756.189	596.62
756.939	556.64
757.69	546.39
758.441	641.72
759.192	591.49
759.942	643.77
760.693	649.91
761.443	615.07
762.194	560.74
762.944	526.91
763.694	657.09
764.444	579.19
765.194	632.49
765.944	623.27
766.694	651.96
767.444	684.76
768.194	647.86
768.943	551.52
769.693	642.74
770.443	623.27
771.192	660.16
771.941	497.19
772.691	634.54
773.44	592.52
774.189	659.14
774.938	625.32
775.687	588.42
776.436	615.07
777.185	633.52
777.934	560.74
778.683	604.82
779.431	596.62
780.18	644.79
780.928	578.17
781.677	595.59
782.425	620.19
783.173	662.21
783.922	637.62
784.67	707.3
785.418	670.41
786.166	692.96
786.914	563.82
787.661	614.04
788.409	605.84
789.157	593.54
789.904	594.57
790.652	671.44
791.399	626.34
792.147	624.29
792.894	655.04
793.641	602.77
794.388	5286.51
795.136	644.79
795.883	564.84
796.629	667.34
797.376	524.86
798.123	558.69
798.87	519.74
799.616	566.89
800.363	710.38
801.109	713.45
801.856	669.39
802.602	481.81
803.349	700.13
804.095	740.1
804.841	603.79
805.587	623.27
806.333	630.44
807.079	648.89
807.825	627.37
808.57	606.87
809.316	726.77
810.062	637.62
810.807	663.24
811.553	721.65
812.298	679.64
813.043	629.42
813.788	686.81
814.534	613.02
815.279	702.18
816.024	636.59
816.769	632.49
817.514	656.06
818.258	624.29
819.003	700.13
819.748	15565.75
820.492	603.79
821.237	4709.94
821.981	597.64
822.726	703.21
823.47	701.16
824.214	702.18
824.958	634.54
825.702	646.84
826.446	669.39
827.19	671.44
827.934	730.87
828.678	673.49
829.421	723.7
830.165	662.21
830.909	641.72
831.652	611.99
832.395	683.73
833.139	677.59
833.882	787.23
834.625	636.59
835.368	633.52
836.111	573.04
836.854	608.92
837.597	657.09
838.34	671.44
839.083	657.09
839.825	679.64
840.568	561.77
841.311	642.74
842.053	685.78
842.795	579.19
843.538	608.92
844.28	560.74
845.022	547.42
845.764	765.71
846.506	535.12
847.248	578.17
847.99	646.84
848.732	655.04
849.474	607.89
850.215	525.89
850.957	503.34
851.698	569.97
852.44	648.89
853.181	584.32
853.922	685.78
854.664	605.84
855.405	688.86
856.146	536.14
856.887	603.79
857.628	698.08
858.369	518.71
859.109	681.68
859.85	584.32
860.591	676.56
861.331	549.47
862.072	504.36
862.812	491.03
863.553	552.54
864.293	682.71
865.033	584.32
865.773	632.49
866.513	544.34
867.253	532.04
867.993	569.97
868.733	593.54
869.473	618.14
870.213	675.54
870.952	532.04
871.692	585.34
872.431	544.34
873.171	583.29
873.91	578.17
874.649	478.73
875.388	630.44
876.128	595.59
876.867	529.99
877.606	607.89
878.345	582.27
879.083	549.47
879.822	536.14
880.561	603.79
881.299	566.89
882.038	568.94
882.777	649.91
883.515	682.71
884.253	8078.57
884.992	608.92
885.73	590.47
886.468	598.67
887.206	721.65
887.944	627.37
888.682	654.01
889.42	608.92
890.157	615.07
890.895	552.54
891.633	1279.81
892.37	614.04
893.108	637.62
893.845	595.59
894.583	620.19
895.32	519.74
896.057	538.19
896.794	600.72
897.531	650.94
898.268	574.07
899.005	548.44
899.742	596.62
900.479	572.02
901.215	596.62
901.952	576.12
902.689	523.84
903.425	507.44
904.162	527.94
904.898	606.87
905.634	671.44
906.37	594.57
907.106	501.29
907.843	623.27
908.579	577.14
909.314	450.02
910.05	575.09
910.786	577.14
911.522	505.39
912.257	644.79
912.993	585.34
913.728	557.67
914.464	585.34
915.199	561.77
915.935	526.91
916.67	567.92
917.405	613.02
918.14	621.22
918.875	599.69
919.61	671.44
920.345	669.39
921.08	691.93
921.814	600.72
922.549	544.34
923.284	816.94
924.018	555.62
924.752	672.46
925.487	599.69
926.221	621.22
926.955	591.49
927.69	526.91
928.424	592.52
929.158	628.39
929.892	556.64
930.625	606.87
931.359	704.23
932.093	644.79
932.827	562.79
933.56	576.12
934.294	508.46
935.027	617.12
935.761	639.67
936.494	580.22
937.227	543.32
937.96	648.89
938.693	675.54
939.426	545.37
940.159	646.84
940.892	602.77
941.625	669.39
942.358	642.74
943.091	589.44
943.823	518.71
944.556	505.39
945.288	572.02
946.021	625.32
946.753	549.47
947.485	647.86
948.217	590.47
948.95	606.87
949.682	528.96
950.414	552.54
951.146	609.94
951.877	565.87
952.609	584.32
953.341	598.67
954.073	674.51
954.804	622.24
955.536	585.34
956.267	623.27
956.998	545.37
957.73	548.44
958.461	544.34
959.192	523.84
959.923	674.51
960.654	599.69
961.385	564.84
962.116	599.69
962.847	579.19
963.578	578.17
964.308	564.84
965.039	519.74
965.769	602.77
966.5	615.07
967.23	567.92
967.961	614.04
968.691	639.67
969.421	519.74
970.151	646.84
970.881	525.89
971.611	652.99
972.341	614.04
973.071	665.29
973.801	666.31
974.53	563.82
975.26	567.92
975.99	588.42
976.719	650.94
977.448	563.82
978.178	580.22
978.907	610.97
979.636	526.91
980.365	657.09
981.095	673.49
981.824	640.69
982.553	595.59
983.281	551.52
984.01	-1.28
984.739	-19.75
985.468	-56.7
986.196	-76.19
986.925	832.31
987.653	584.32
988.382	696.03
989.11	622.24
989.838	651.96
990.566	727.8
991.295	588.42
992.023	681.68
992.751	689.88
993.478	575.09
994.206	633.52
994.934	601.74
995.662	-15.65
996.389	-48.49
997.117	135.17
997.845	82.85
