Data from SampleKW32_Bg_QEPB07591_00008.txt Node
Date: Thu Aug 22 15:29:22 EDT 2019
User: wcc
Spectrometer: QEPB0759
Trigger mode: 0
Integration Time (sec): 1.749000E0
Scans to average: 1
Electric dark correction enabled: true
Nonlinearity correction enabled: true
Boxcar width: 0
XAxis mode: Wavelengths
Number of Pixels in Spectrum: 1044
>>>>>Begin Spectral Data<<<<<
197.938	633.9
198.749	594.95
199.559	561.13
200.369	564.2
201.179	603.15
201.988	588.8
202.798	709.74
203.608	565.23
204.417	587.78
205.227	557.03
206.036	631.85
206.846	629.8
207.655	665.67
208.464	626.73
209.273	659.52
210.082	571.38
210.891	577.53
211.7	572.4
212.508	565.23
213.317	551.9
214.125	519.1
214.934	569.33
215.742	563.18
216.55	559.08
217.359	528.32
218.167	570.35
218.975	654.4
219.782	554.98
220.59	542.68
221.398	530.37
222.206	707.69
223.013	590.85
223.82	535.5
224.628	553.95
225.435	582.65
226.242	625.7
227.049	620.58
227.856	553.95
228.663	621.6
229.47	586.75
230.277	587.78
231.083	565.23
231.89	556
232.696	615.45
233.502	578.55
234.309	550.88
235.115	636.98
235.921	604.18
236.727	526.27
237.533	668.75
238.339	631.85
239.144	603.15
239.95	731.26
240.756	605.2
241.561	599.05
242.366	543.7
243.172	621.6
243.977	676.95
244.782	633.9
245.587	623.65
246.392	640.05
247.197	525.25
248.001	530.37
248.806	559.08
249.611	561.13
250.415	608.28
251.219	580.6
252.024	612.38
252.828	553.95
253.632	571.38
254.436	551.9
255.24	657.47
256.044	653.37
256.848	574.45
257.651	536.53
258.455	594.95
259.258	611.35
260.062	49494.95
260.865	657.47
261.668	622.63
262.471	547.8
263.274	638
264.077	541.65
264.88	583.68
265.683	534.47
266.486	586.75
267.288	652.35
268.091	521.15
268.893	571.38
269.696	619.55
270.498	602.13
271.3	602.13
272.102	656.45
272.904	592.9
273.706	599.05
274.508	587.78
275.309	613.4
276.111	612.38
276.913	531.4
277.714	506.8
278.515	561.13
279.317	642.1
280.118	528.32
280.919	602.13
281.72	597
282.521	627.75
283.322	561.13
284.122	612.38
284.923	625.7
285.724	579.58
286.524	588.8
287.325	682.07
288.125	536.53
288.925	565.23
289.725	594.95
290.525	680.02
291.325	609.3
292.125	622.63
292.925	650.3
293.724	523.2
294.524	513.97
295.324	537.55
296.123	590.85
296.922	581.63
297.722	870.6
298.521	603.15
299.32	709.74
300.119	527.3
300.918	617.5
301.716	700.52
302.515	585.73
303.314	663.62
304.112	574.45
304.911	689.24
305.709	583.68
306.507	644.15
307.306	587.78
308.104	584.7
308.902	615.45
309.7	587.78
310.498	646.2
311.295	515
312.093	652.35
312.891	672.85
313.688	640.05
314.485	603.15
315.283	725.11
316.08	620.58
316.877	580.6
317.674	585.73
318.471	496.54
319.268	576.5
320.065	619.55
320.862	623.65
321.658	584.7
322.455	656.45
323.251	551.9
324.047	551.9
324.844	704.61
325.64	541.65
326.436	608.28
327.232	592.9
328.028	588.8
328.824	545.75
329.62	650.3
330.415	747.65
331.211	623.65
332.006	607.25
332.802	656.45
333.597	590.85
334.392	667.72
335.187	625.7
335.982	559.08
336.777	640.05
337.572	578.55
338.367	641.08
339.162	665.67
339.956	605.2
340.751	613.4
341.545	641.08
342.34	660.55
343.134	545.75
343.928	645.17
344.722	673.87
345.516	553.95
346.31	553.95
347.104	601.1
347.898	611.35
348.691	602.13
349.485	516.02
350.278	617.5
351.072	710.76
351.865	7214.61
352.658	619.55
353.452	685.14
354.245	575.48
355.038	644.15
355.83	585.73
356.623	581.63
357.416	568.3
358.209	586.75
359.001	559.08
359.794	611.35
360.586	641.08
361.378	667.72
362.17	585.73
362.963	548.83
363.755	694.37
364.546	520.12
365.338	626.73
366.13	647.22
366.922	614.43
367.713	586.75
368.505	589.83
369.296	573.43
370.088	497.57
370.879	547.8
371.67	592.9
372.461	544.73
373.252	583.68
374.043	673.87
374.834	485.27
375.625	622.63
376.415	656.45
377.206	614.43
377.996	572.4
378.787	711.79
379.577	511.92
380.367	490.39
381.157	605.2
381.947	577.53
382.737	618.53
383.527	613.4
384.317	698.47
385.107	594.95
385.896	652.35
386.686	609.3
387.475	631.85
388.265	577.53
389.054	824.5
389.843	579.58
390.632	591.88
391.421	613.4
392.21	668.75
392.999	558.05
393.788	612.38
394.576	632.88
395.365	608.28
396.154	591.88
396.942	559.08
397.73	605.2
398.519	604.18
399.307	622.63
400.095	603.15
400.883	682.07
401.671	601.1
402.459	622.63
403.246	538.58
404.034	592.9
404.822	571.38
405.609	670.8
406.396	687.19
407.184	530.37
407.971	636.98
408.758	635.95
409.545	475.02
410.332	649.27
411.119	649.27
411.906	545.75
412.693	618.53
413.479	645.17
414.266	568.3
415.052	615.45
415.839	578.55
416.625	574.45
417.411	649.27
418.197	666.7
418.983	712.81
419.769	660.55
420.555	602.13
421.341	604.18
422.127	600.08
422.912	589.83
423.698	672.85
424.483	577.53
425.269	564.2
426.054	509.87
426.839	633.9
427.624	568.3
428.409	579.58
429.194	584.7
429.979	630.83
430.764	615.45
431.549	607.25
432.333	587.78
433.118	508.85
433.902	627.75
434.687	575.48
435.471	601.1
436.255	614.43
437.039	572.4
437.823	599.05
438.607	585.73
439.391	594.95
440.175	612.38
440.958	578.55
441.742	602.13
442.526	533.45
443.309	604.18
444.092	687.19
444.876	604.18
445.659	592.9
446.442	680.02
447.225	655.42
448.008	686.17
448.791	644.15
449.573	740.48
450.356	677.97
451.139	649.27
451.921	553.95
452.704	621.6
453.486	575.48
454.268	626.73
455.05	616.48
455.833	572.4
456.615	634.93
457.396	597
458.178	645.17
458.96	531.4
459.742	590.85
460.523	583.68
461.305	572.4
462.086	627.75
462.868	701.54
463.649	622.63
464.43	547.8
465.211	702.56
465.992	549.85
466.773	718.96
467.554	597
468.335	613.4
469.115	610.33
469.896	533.45
470.676	479.12
471.457	628.78
472.237	625.7
473.018	605.2
473.798	592.9
474.578	631.85
475.358	588.8
476.138	522.17
476.918	532.42
477.697	563.18
478.477	689.24
479.257	627.75
480.036	549.85
480.816	527.3
481.595	623.65
482.374	586.75
483.153	663.62
483.932	601.1
484.711	591.88
485.49	603.15
486.269	563.18
487.048	528.32
487.827	635.95
488.605	565.23
489.384	553.95
490.162	610.33
490.941	667.72
491.719	571.38
492.497	576.5
493.275	568.3
494.053	621.6
494.831	550.88
495.609	613.4
496.387	618.53
497.164	616.48
497.942	601.1
498.72	582.65
499.497	601.1
500.274	504.75
501.052	572.4
501.829	636.98
502.606	545.75
503.383	595.98
504.16	624.68
504.937	616.48
505.714	546.78
506.49	674.9
507.267	522.17
508.043	615.45
508.82	672.85
509.596	525.25
510.373	570.35
511.149	528.32
511.925	560.1
512.701	593.93
513.477	671.82
514.253	600.08
515.029	568.3
515.804	594.95
516.58	689.24
517.356	594.95
518.131	699.49
518.906	543.7
519.682	601.1
520.457	594.95
521.232	638
522.007	620.58
522.782	549.85
523.557	519.1
524.332	543.7
525.107	664.65
525.881	556
526.656	507.82
527.43	548.83
528.205	572.4
528.979	537.55
529.753	574.45
530.527	645.17
531.302	565.23
532.076	585.73
532.849	568.3
533.623	586.75
534.397	537.55
535.171	603.15
535.944	641.08
536.718	529.35
537.491	719.99
538.265	500.65
539.038	609.3
539.811	620.58
540.584	577.53
541.357	583.68
542.13	694.37
542.903	692.32
543.676	597
544.449	600.08
545.221	613.4
545.994	571.38
546.766	594.95
547.539	544.73
548.311	628.78
549.083	604.18
549.855	447.33
550.627	638
551.399	602.13
552.171	691.29
552.943	628.78
553.715	547.8
554.486	578.55
555.258	545.75
556.029	539.6
556.801	623.65
557.572	522.17
558.343	554.98
559.114	647.22
559.886	624.68
560.657	574.45
561.427	508.85
562.198	551.9
562.969	607.25
563.74	586.75
564.51	553.95
565.281	691.29
566.051	564.2
566.822	553.95
567.592	588.8
568.362	558.05
569.132	574.45
569.902	760.97
570.672	531.4
571.442	624.68
572.212	631.85
572.982	577.53
573.751	624.68
574.521	598.03
575.29	706.66
576.06	634.93
576.829	593.93
577.598	567.28
578.367	535.5
579.136	551.9
579.905	603.15
580.674	660.55
581.443	631.85
582.212	573.43
582.981	655.42
583.749	562.15
584.518	589.83
585.286	676.95
586.054	728.18
586.823	623.65
587.591	549.85
588.359	656.45
589.127	595.98
589.895	678.99
590.663	684.12
591.431	647.22
592.198	628.78
592.966	651.32
593.734	686.17
594.501	583.68
595.268	603.15
596.036	693.34
596.803	560.1
597.57	578.55
598.337	577.53
599.104	567.28
599.871	630.83
600.638	633.9
601.405	666.7
602.171	571.38
602.938	743.55
603.704	550.88
604.471	542.68
605.237	693.34
606.004	590.85
606.77	652.35
607.536	688.22
608.302	683.09
609.068	650.3
609.834	607.25
610.599	655.42
611.365	566.25
612.131	603.15
612.896	650.3
613.662	690.27
614.427	635.95
615.193	608.28
615.958	607.25
616.723	640.05
617.488	502.7
618.253	609.3
619.018	601.1
619.783	568.3
620.548	669.77
621.312	595.98
622.077	543.7
622.842	624.68
623.606	749.7
624.37	608.28
625.135	667.72
625.899	636.98
626.663	583.68
627.427	643.12
628.191	623.65
628.955	692.32
629.719	597
630.483	610.33
631.246	522.17
632.01	580.6
632.773	687.19
633.537	544.73
634.3	602.13
635.063	577.53
635.827	536.53
636.59	571.38
637.353	638
638.116	659.52
638.879	524.22
639.641	716.91
640.404	622.63
641.167	586.75
641.929	644.15
642.692	541.65
643.454	563.18
644.216	646.2
644.979	633.9
645.741	643.12
646.503	685.14
647.265	654.4
648.027	705.64
648.789	560.1
649.551	612.38
650.312	602.13
651.074	577.53
651.835	583.68
652.597	619.55
653.358	647.22
654.12	602.13
654.881	586.75
655.642	608.28
656.403	578.55
657.164	633.9
657.925	599.05
658.686	664.65
659.447	554.98
660.207	550.88
660.968	638
661.728	697.44
662.489	629.8
663.249	605.2
664.01	566.25
664.77	660.55
665.53	651.32
666.29	565.23
667.05	651.32
667.81	585.73
668.57	566.25
669.329	588.8
670.089	579.58
670.849	592.9
671.608	661.57
672.368	535.5
673.127	646.2
673.886	562.15
674.646	519.1
675.405	615.45
676.164	634.93
676.923	642.1
677.682	721.01
678.44	606.23
679.199	543.7
679.958	821.42
680.717	628.78
681.475	559.08
682.233	578.55
682.992	508.85
683.75	587.78
684.508	633.9
685.266	543.7
686.024	654.4
686.782	578.55
687.54	655.42
688.298	629.8
689.056	683.09
689.814	530.37
690.571	633.9
691.329	593.93
692.086	581.63
692.843	577.53
693.601	629.8
694.358	659.52
695.115	548.83
695.872	564.2
696.629	526.27
697.386	669.77
698.143	678.99
698.9	549.85
699.656	560.1
700.413	588.8
701.169	642.1
701.926	587.78
702.682	603.15
703.438	567.28
704.195	693.34
704.951	521.15
705.707	529.35
706.463	539.6
707.219	568.3
707.974	536.53
708.73	486.29
709.486	560.1
710.241	586.75
710.997	574.45
711.752	625.7
712.508	594.95
713.263	568.3
714.018	606.23
714.773	593.93
715.528	718.96
716.283	656.45
717.038	547.8
717.793	624.68
718.548	595.98
719.303	624.68
720.057	567.28
720.812	571.38
721.566	525.25
722.321	590.85
723.075	590.85
723.829	635.95
724.583	585.73
725.337	575.48
726.091	667.72
726.845	617.5
727.599	515
728.353	617.5
729.106	551.9
729.86	671.82
730.614	535.5
731.367	6167.64
732.12	584.7
732.874	537.55
733.627	601.1
734.38	634.93
735.133	627.75
735.886	575.48
736.639	568.3
737.392	619.55
738.145	566.25
738.897	664.65
739.65	601.1
740.403	622.63
741.155	631.85
741.907	628.78
742.66	706.66
743.412	522.17
744.164	621.6
744.916	533.45
745.668	610.33
746.42	688.22
747.172	605.2
747.924	593.93
748.676	525.25
749.427	576.5
750.179	632.88
750.93	649.27
751.682	528.32
752.433	631.85
753.184	703.59
753.935	567.28
754.687	535.5
755.438	642.1
756.189	593.93
756.939	556
757.69	541.65
758.441	624.68
759.192	594.95
759.942	649.27
760.693	648.25
761.443	628.78
762.194	560.1
762.944	535.5
763.694	665.67
764.444	563.18
765.194	634.93
765.944	621.6
766.694	633.9
767.444	683.09
768.194	653.37
768.943	541.65
769.693	663.62
770.443	632.88
771.192	674.9
771.941	504.75
772.691	652.35
773.44	604.18
774.189	646.2
774.938	616.48
775.687	581.63
776.436	628.78
777.185	634.93
777.934	559.08
778.683	617.5
779.431	598.03
780.18	664.65
780.928	587.78
781.677	602.13
782.425	625.7
783.173	664.65
783.922	641.08
784.67	704.61
785.418	666.7
786.166	717.94
786.914	546.78
787.661	623.65
788.409	599.05
789.157	594.95
789.904	595.98
790.652	656.45
791.399	625.7
792.147	625.7
792.894	656.45
793.641	605.2
794.388	5323.41
795.136	649.27
795.883	565.23
796.629	659.52
797.376	522.17
798.123	557.03
798.87	529.35
799.616	577.53
800.363	730.23
801.109	715.89
801.856	655.42
802.602	481.17
803.349	697.44
804.095	729.21
804.841	622.63
805.587	626.73
806.333	629.8
807.079	654.4
807.825	625.7
808.57	620.58
809.316	710.76
810.062	642.1
810.807	647.22
811.553	728.18
812.298	664.65
813.043	640.05
813.788	687.19
814.534	619.55
815.279	700.52
816.024	645.17
816.769	621.6
817.514	665.67
818.258	628.78
819.003	708.71
819.748	15773.96
820.492	636.98
821.237	4718.45
821.981	611.35
822.726	713.84
823.47	707.69
824.214	694.37
824.958	633.9
825.702	647.22
826.446	672.85
827.19	663.62
827.934	731.26
828.678	661.57
829.421	744.58
830.165	650.3
830.909	635.95
831.652	620.58
832.395	693.34
833.139	693.34
833.882	798.88
834.625	628.78
835.368	628.78
836.111	571.38
836.854	617.5
837.597	658.5
838.34	676.95
839.083	654.4
839.825	684.12
840.568	566.25
841.311	633.9
842.053	705.64
842.795	551.9
843.538	621.6
844.28	582.65
845.022	545.75
845.764	765.07
846.506	544.73
847.248	597
847.99	646.2
848.732	660.55
849.474	593.93
850.215	536.53
850.957	504.75
851.698	580.6
852.44	662.6
853.181	588.8
853.922	698.47
854.664	603.15
855.405	696.42
856.146	542.68
856.887	595.98
857.628	690.27
858.369	526.27
859.109	684.12
859.85	586.75
860.591	675.92
861.331	556
862.072	506.8
862.812	478.09
863.553	561.13
864.293	685.14
865.033	584.7
865.773	611.35
866.513	517.05
867.253	535.5
867.993	567.28
868.733	601.1
869.473	629.8
870.213	676.95
870.952	527.3
871.692	590.85
872.431	564.2
873.171	592.9
873.91	568.3
874.649	495.52
875.388	612.38
876.128	591.88
876.867	525.25
877.606	598.03
878.345	576.5
879.083	558.05
879.822	548.83
880.561	602.13
881.299	581.63
882.038	578.55
882.777	658.5
883.515	672.85
884.253	8033.54
884.992	608.28
885.73	582.65
886.468	594.95
887.206	725.11
887.944	640.05
888.682	664.65
889.42	605.2
890.157	625.7
890.895	544.73
891.633	1291.46
892.37	606.23
893.108	635.95
893.845	609.3
894.583	619.55
895.32	531.4
896.057	540.63
896.794	598.03
897.531	645.17
898.268	579.58
899.005	548.83
899.742	588.8
900.479	565.23
901.215	590.85
901.952	567.28
902.689	534.47
903.425	501.67
904.162	533.45
904.898	622.63
905.634	684.12
906.37	600.08
907.106	504.75
907.843	626.73
908.579	584.7
909.314	459.64
910.05	574.45
910.786	584.7
911.522	504.75
912.257	643.12
912.993	595.98
913.728	560.1
914.464	573.43
915.199	543.7
915.935	518.07
916.67	563.18
917.405	611.35
918.14	610.33
918.875	616.48
919.61	660.55
920.345	664.65
921.08	692.32
921.814	601.1
922.549	552.93
923.284	818.35
924.018	566.25
924.752	682.07
925.487	615.45
926.221	633.9
926.955	590.85
927.69	541.65
928.424	595.98
929.158	617.5
929.892	553.95
930.625	617.5
931.359	703.59
932.093	630.83
932.827	561.13
933.56	588.8
934.294	515
935.027	616.48
935.761	643.12
936.494	565.23
937.227	556
937.96	629.8
938.693	646.2
939.426	545.75
940.159	656.45
940.892	614.43
941.625	694.37
942.358	651.32
943.091	597
943.823	537.55
944.556	512.95
945.288	567.28
946.021	620.58
946.753	577.53
947.485	646.2
948.217	590.85
948.95	608.28
949.682	532.42
950.414	545.75
951.146	590.85
951.877	564.2
952.609	588.8
953.341	621.6
954.073	692.32
954.804	620.58
955.536	567.28
956.267	633.9
956.998	539.6
957.73	541.65
958.461	531.4
959.192	508.85
959.923	678.99
960.654	607.25
961.385	571.38
962.116	617.5
962.847	576.5
963.578	587.78
964.308	568.3
965.039	525.25
965.769	609.3
966.5	617.5
967.23	561.13
967.961	608.28
968.691	647.22
969.421	515
970.151	650.3
970.881	537.55
971.611	654.4
972.341	602.13
973.071	651.32
973.801	669.77
974.53	554.98
975.26	567.28
975.99	592.9
976.719	658.5
977.448	569.33
978.178	568.3
978.907	609.3
979.636	543.7
980.365	647.22
981.095	693.34
981.824	647.22
982.553	600.08
983.281	564.2
984.01	5.26
984.739	-26.55
985.468	-45.02
986.196	-87.1
986.925	831.67
987.653	588.8
988.382	691.29
989.11	632.88
989.838	662.6
990.566	725.11
991.295	567.28
992.023	676.95
992.751	683.09
993.478	578.55
994.206	655.42
994.934	589.83
995.662	-7.05
996.389	-51.18
997.117	127.35
997.845	84.26
