Data from SampleKW32_QEPB07591_00006.txt Node
Date: Thu Aug 22 15:28:28 EDT 2019
User: wcc
Spectrometer: QEPB0759
Trigger mode: 0
Integration Time (sec): 1.749000E0
Scans to average: 1
Electric dark correction enabled: true
Nonlinearity correction enabled: true
Boxcar width: 0
XAxis mode: Wavelengths
Number of Pixels in Spectrum: 1044
>>>>>Begin Spectral Data<<<<<
197.938	637.36
198.749	602.51
199.559	571.76
200.369	555.36
201.179	582.01
201.988	592.26
202.798	705
203.608	579.96
204.417	586.11
205.227	551.26
206.036	624.04
206.846	628.14
207.655	654.78
208.464	629.16
209.273	658.88
210.082	577.91
210.891	554.34
211.7	578.94
212.508	585.09
213.317	574.84
214.125	531.78
214.934	574.84
215.742	575.86
216.55	568.69
217.359	518.46
218.167	561.51
218.975	664.01
219.782	565.61
220.59	539.98
221.398	539.98
222.206	699.87
223.013	599.44
223.82	529.73
224.628	555.36
225.435	580.99
226.242	639.41
227.049	614.81
227.856	568.69
228.663	603.54
229.47	597.39
230.277	597.39
231.083	578.94
231.89	572.79
232.696	625.06
233.502	575.86
234.309	560.49
235.115	621.99
235.921	608.66
236.727	527.68
237.533	649.66
238.339	631.21
239.144	607.64
239.95	733.69
240.756	618.91
241.561	604.56
242.366	544.09
243.172	625.06
243.977	678.35
244.782	635.31
245.587	631.21
246.392	645.56
247.197	527.68
248.001	537.93
248.806	566.64
249.611	558.44
250.415	606.61
251.219	574.84
252.024	600.46
252.828	554.34
253.632	557.41
254.436	556.39
255.24	642.48
256.044	651.71
256.848	575.86
257.651	548.19
258.455	598.41
259.258	593.29
260.062	50849.26
260.865	656.83
261.668	619.94
262.471	549.21
263.274	627.11
264.077	534.86
264.88	592.26
265.683	543.06
266.486	585.09
267.288	662.98
268.091	523.58
268.893	592.26
269.696	607.64
270.498	600.46
271.3	599.44
272.102	668.11
272.904	584.06
273.706	600.46
274.508	595.34
275.309	612.76
276.111	609.69
276.913	526.66
277.714	515.38
278.515	554.34
279.317	650.68
280.118	524.61
280.919	594.31
281.72	571.76
282.521	640.43
283.322	553.31
284.122	616.86
284.923	631.21
285.724	579.96
286.524	584.06
287.325	695.78
288.125	534.86
288.925	571.76
289.725	596.36
290.525	685.53
291.325	599.44
292.125	624.04
292.925	647.61
293.724	542.04
294.524	509.23
295.324	547.16
296.123	593.29
296.922	584.06
297.722	864.84
298.521	594.31
299.32	706.02
300.119	504.11
300.918	614.81
301.716	709.1
302.515	579.96
303.314	669.13
304.112	583.04
304.911	690.65
305.709	570.74
306.507	647.61
307.306	580.99
308.104	591.24
308.902	608.66
309.7	590.21
310.498	650.68
311.295	505.13
312.093	658.88
312.891	683.48
313.688	639.41
314.485	598.41
315.283	715.25
316.08	635.31
316.877	583.04
317.674	583.04
318.471	494.88
319.268	566.64
320.065	624.04
320.862	626.09
321.658	574.84
322.455	649.66
323.251	547.16
324.047	547.16
324.844	711.15
325.64	535.88
326.436	607.64
327.232	576.89
328.028	588.16
328.824	549.21
329.62	649.66
330.415	732.67
331.211	623.01
332.006	597.39
332.802	667.08
333.597	592.26
334.392	656.83
335.187	620.96
335.982	573.81
336.777	633.26
337.572	576.89
338.367	623.01
339.162	669.13
339.956	606.61
340.751	633.26
341.545	637.36
342.34	640.43
343.134	553.31
343.928	673.23
344.722	656.83
345.516	547.16
346.31	547.16
347.104	598.41
347.898	614.81
348.691	594.31
349.485	523.58
350.278	625.06
351.072	720.37
351.865	7242.27
352.658	617.89
353.452	687.58
354.245	570.74
355.038	631.21
355.83	588.16
356.623	574.84
357.416	563.56
358.209	584.06
359.001	569.71
359.794	619.94
360.586	649.66
361.378	664.01
362.17	578.94
362.963	527.68
363.755	695.78
364.546	523.58
365.338	614.81
366.13	634.29
366.922	611.74
367.713	586.11
368.505	593.29
369.296	563.56
370.088	504.11
370.879	545.11
371.67	613.79
372.461	546.14
373.252	603.54
374.043	676.3
374.834	504.11
375.625	623.01
376.415	667.08
377.206	626.09
377.996	572.79
378.787	703.97
379.577	523.58
380.367	498.98
381.157	624.04
381.947	576.89
382.737	612.76
383.527	615.84
384.317	697.83
385.107	592.26
385.896	660.93
386.686	608.66
387.475	644.53
388.265	590.21
389.054	848.45
389.843	604.56
390.632	608.66
391.421	612.76
392.21	691.68
392.999	561.51
393.788	636.33
394.576	642.48
395.365	634.29
396.154	611.74
396.942	588.16
397.73	630.19
398.519	638.38
399.307	657.86
400.095	629.16
400.883	727.54
401.671	633.26
402.459	649.66
403.246	587.14
404.034	638.38
404.822	619.94
405.609	720.37
406.396	738.81
407.184	582.01
407.971	695.78
408.758	680.4
409.545	527.68
410.332	706.02
411.119	700.9
411.906	587.14
412.693	678.35
413.479	702.95
414.266	642.48
415.052	691.68
415.839	664.01
416.625	653.76
417.411	734.72
418.197	769.55
418.983	777.75
419.769	747.01
420.555	673.23
421.341	686.55
422.127	693.73
422.912	676.3
423.698	755.21
424.483	665.03
425.269	648.63
426.054	598.41
426.839	729.59
427.624	648.63
428.409	688.6
429.194	699.87
429.979	760.33
430.764	752.14
431.549	724.47
432.333	709.1
433.118	635.31
433.902	768.53
434.687	693.73
435.471	750.09
436.255	743.94
437.039	721.39
437.823	737.79
438.607	741.89
439.391	757.26
440.175	763.41
440.958	735.74
441.742	765.46
442.526	698.85
443.309	786.97
444.092	864.84
444.876	786.97
445.659	769.55
446.442	875.08
447.225	857.67
448.008	895.57
448.791	864.84
449.573	986.73
450.356	914.01
451.139	901.72
451.921	799.27
452.704	876.11
453.486	830
454.268	899.67
455.05	864.84
455.833	843.32
456.615	900.69
457.396	864.84
458.178	929.37
458.96	811.56
459.742	854.59
460.523	854.59
461.305	856.64
462.086	935.52
462.868	1028.72
463.649	885.33
464.43	836.15
465.211	994.92
465.992	854.59
466.773	1050.23
467.554	938.59
468.335	957.03
469.115	935.52
469.896	830
470.676	774.68
471.457	916.06
472.237	922.2
473.018	909.91
473.798	886.35
474.578	869.96
475.358	830
476.138	762.38
476.918	752.14
477.697	789.02
478.477	892.5
479.257	831.03
480.036	774.68
480.816	744.96
481.595	824.88
482.374	801.32
483.153	845.37
483.932	782.87
484.711	762.38
485.49	777.75
486.269	699.87
487.048	658.88
487.827	784.92
488.605	712.17
489.384	685.53
490.162	762.38
490.941	814.64
491.719	692.7
492.497	715.25
493.275	698.85
494.053	728.57
494.831	666.06
495.609	702.95
496.387	710.12
497.164	729.59
497.942	694.75
498.72	654.78
499.497	666.06
500.274	566.64
501.052	644.53
501.829	690.65
502.606	610.71
503.383	654.78
504.16	669.13
504.937	660.93
505.714	567.66
506.49	698.85
507.267	549.21
508.043	649.66
508.82	706.02
509.596	555.36
510.373	577.91
511.149	545.11
511.925	571.76
512.701	623.01
513.477	677.33
514.253	600.46
515.029	591.24
515.804	590.21
516.58	668.11
517.356	574.84
518.131	706.02
518.906	538.96
519.682	612.76
520.457	582.01
521.232	620.96
522.007	614.81
522.782	550.24
523.557	535.88
524.332	528.71
525.107	691.68
525.881	565.61
526.656	518.46
527.43	555.36
528.205	585.09
528.979	529.73
529.753	569.71
530.527	646.58
531.302	566.64
532.076	607.64
532.849	573.81
533.623	597.39
534.397	529.73
535.171	601.49
535.944	647.61
536.718	529.73
537.491	701.92
538.265	491.8
539.038	618.91
539.811	618.91
540.584	586.11
541.357	582.01
542.13	686.55
542.903	701.92
543.676	594.31
544.449	598.41
545.221	627.11
545.994	572.79
546.766	601.49
547.539	547.16
548.311	630.19
549.083	601.49
549.855	446.69
550.627	651.71
551.399	596.36
552.171	679.38
552.943	632.24
553.715	533.83
554.486	600.46
555.258	544.09
556.029	528.71
556.801	621.99
557.572	528.71
558.343	568.69
559.114	647.61
559.886	642.48
560.657	587.14
561.427	514.36
562.198	552.29
562.969	621.99
563.74	582.01
564.51	549.21
565.281	692.7
566.051	559.46
566.822	557.41
567.592	569.71
568.362	563.56
569.132	561.51
569.902	761.36
570.672	519.48
571.442	635.31
572.212	618.91
572.982	590.21
573.751	619.94
574.521	596.36
575.29	716.27
576.06	630.19
576.829	600.46
577.598	562.54
578.367	524.61
579.136	556.39
579.905	627.11
580.674	660.93
581.443	630.19
582.212	571.76
582.981	662.98
583.749	566.64
584.518	591.24
585.286	681.43
586.054	725.49
586.823	635.31
587.591	550.24
588.359	655.81
589.127	597.39
589.895	696.8
590.663	700.9
591.431	629.16
592.198	650.68
592.966	661.96
593.734	700.9
594.501	604.56
595.268	643.51
596.036	734.72
596.803	627.11
597.57	645.56
598.337	654.78
599.104	682.45
599.871	777.75
600.638	813.61
601.405	882.25
602.171	804.39
602.938	1024.62
603.704	858.69
604.471	911.96
605.237	1098.35
606.004	1048.18
606.77	1116.78
607.536	1221.21
608.302	1220.19
609.068	1245.78
609.834	1236.57
610.599	1320.5
611.365	1236.57
612.131	1317.43
612.896	1389.07
613.662	1449.44
614.427	1420.79
615.193	1398.28
615.958	1441.25
616.723	1468.88
617.488	1337.9
618.253	1466.83
619.018	1469.9
619.783	1451.49
620.548	1540.49
621.312	1465.81
622.077	1427.95
622.842	1503.66
623.606	1641.76
624.37	1489.34
625.135	1566.07
625.899	1545.61
626.663	1477.06
627.427	1532.31
628.191	1497.53
628.955	1566.07
629.719	1465.81
630.483	1475.02
631.246	1382.93
632.01	1421.81
632.773	1522.08
633.537	1372.69
634.3	1423.86
635.063	1397.25
635.827	1335.85
636.59	1371.67
637.353	1437.16
638.116	1428.97
638.879	1299.01
639.641	1476.04
640.404	1391.11
641.167	1350.18
641.929	1390.09
642.692	1268.3
643.454	1292.86
644.216	1376.79
644.979	1357.34
645.741	1333.8
646.503	1417.72
647.265	1368.6
648.027	1413.63
648.789	1251.92
649.551	1313.33
650.312	1289.79
651.074	1268.3
651.835	1245.78
652.597	1258.06
653.358	1285.7
654.12	1263.18
654.881	1231.45
655.642	1250.9
656.403	1200.74
657.164	1250.9
657.925	1235.54
658.686	1285.7
659.447	1163.88
660.207	1185.38
660.968	1251.92
661.728	1334.83
662.489	1261.13
663.249	1257.04
664.01	1215.07
664.77	1294.91
665.53	1284.68
666.29	1203.81
667.05	1296.96
667.81	1226.33
668.57	1230.42
669.329	1212
670.089	1218.14
670.849	1265.23
671.608	1293.89
672.368	1201.76
673.127	1292.86
673.886	1227.35
674.646	1170.02
675.405	1244.76
676.164	1267.28
676.923	1270.35
677.682	1347.11
678.44	1248.85
679.199	1160.81
679.958	1416.7
680.717	1226.33
681.475	1175.14
682.233	1209.95
682.992	1160.81
683.75	1213.02
684.508	1260.11
685.266	1140.33
686.024	1232.47
686.782	1162.86
687.54	1229.4
688.298	1208.93
689.056	1229.4
689.814	1066.61
690.571	1167.98
691.329	1129.07
692.086	1096.31
692.843	1065.59
693.601	1127.02
694.358	1152.62
695.115	1037.94
695.872	1035.89
696.629	995.95
697.386	1133.17
698.143	1126
698.9	980.58
699.656	1012.33
700.413	1021.55
701.169	1085.04
701.926	1018.48
702.682	1033.84
703.438	996.97
704.195	1132.14
704.951	936.54
705.707	945.76
706.463	942.69
707.219	969.32
707.974	947.81
708.73	899.67
709.486	957.03
710.241	978.54
710.997	972.39
711.752	1013.36
712.508	982.63
713.263	962.15
714.018	971.37
714.773	945.76
715.528	1064.56
716.283	986.73
717.038	877.13
717.793	929.37
718.548	912.98
719.303	909.91
720.057	850.49
720.812	834.1
721.566	785.95
722.321	844.35
723.075	824.88
723.829	865.86
724.583	786.97
725.337	821.81
726.091	883.28
726.845	846.4
727.599	745.99
728.353	818.73
729.106	743.94
729.86	896.59
730.614	743.94
731.367	6439.33
732.12	820.78
732.874	752.14
733.627	803.37
734.38	830
735.133	807.46
735.886	758.28
736.639	749.06
737.392	791.07
738.145	714.22
738.897	836.15
739.65	758.28
740.403	777.75
741.155	790.05
741.907	773.65
742.66	839.23
743.412	638.38
744.164	742.91
744.916	613.79
745.668	671.18
746.42	752.14
747.172	641.46
747.924	615.84
748.676	527.68
749.427	586.11
750.179	629.16
750.93	661.96
751.682	523.58
752.433	659.91
753.184	705
753.935	562.54
754.687	545.11
755.438	650.68
756.189	599.44
756.939	568.69
757.69	551.26
758.441	649.66
759.192	590.21
759.942	647.61
760.693	649.66
761.443	625.06
762.194	545.11
762.944	545.11
763.694	640.43
764.444	574.84
765.194	650.68
765.944	641.46
766.694	643.51
767.444	676.3
768.194	649.66
768.943	549.21
769.693	654.78
770.443	623.01
771.192	648.63
771.941	501.03
772.691	635.31
773.44	610.71
774.189	656.83
774.938	612.76
775.687	589.19
776.436	619.94
777.185	636.33
777.934	568.69
778.683	609.69
779.431	601.49
780.18	659.91
780.928	593.29
781.677	600.46
782.425	638.38
783.173	649.66
783.922	657.86
784.67	721.39
785.418	671.18
786.166	715.25
786.914	561.51
787.661	609.69
788.409	610.71
789.157	584.06
789.904	593.29
790.652	670.16
791.399	648.63
792.147	635.31
792.894	657.86
793.641	604.56
794.388	5335.96
795.136	641.46
795.883	561.51
796.629	671.18
797.376	520.51
798.123	547.16
798.87	533.83
799.616	575.86
800.363	711.15
801.109	720.37
801.856	673.23
802.602	497.95
803.349	691.68
804.095	720.37
804.841	630.19
805.587	736.77
806.333	667.08
807.079	661.96
807.825	625.06
808.57	627.11
809.316	726.52
810.062	630.19
810.807	657.86
811.553	726.52
812.298	677.33
813.043	638.38
813.788	705
814.534	621.99
815.279	718.32
816.024	649.66
816.769	625.06
817.514	650.68
818.258	620.96
819.003	717.3
819.748	15698.4
820.492	610.71
821.237	4695.46
821.981	606.61
822.726	711.15
823.47	711.15
824.214	698.85
824.958	641.46
825.702	660.93
826.446	660.93
827.19	657.86
827.934	720.37
828.678	652.73
829.421	742.91
830.165	664.01
830.909	640.43
831.652	624.04
832.395	705
833.139	702.95
833.882	793.12
834.625	628.14
835.368	633.26
836.111	574.84
836.854	614.81
837.597	665.03
838.34	682.45
839.083	660.93
839.825	684.5
840.568	552.29
841.311	641.46
842.053	700.9
842.795	578.94
843.538	618.91
844.28	569.71
845.022	555.36
845.764	754.19
846.506	523.58
847.248	589.19
847.99	645.56
848.732	647.61
849.474	590.21
850.215	533.83
850.957	500
851.698	562.54
852.44	654.78
853.181	589.19
853.922	700.9
854.664	593.29
855.405	709.1
856.146	529.73
856.887	598.41
857.628	685.53
858.369	528.71
859.109	676.3
859.85	586.11
860.591	683.48
861.331	547.16
862.072	520.51
862.812	475.4
863.553	560.49
864.293	678.35
865.033	574.84
865.773	618.91
866.513	542.04
867.253	536.91
867.993	554.34
868.733	601.49
869.473	627.11
870.213	694.75
870.952	532.81
871.692	610.71
872.431	543.06
873.171	602.51
873.91	571.76
874.649	500
875.388	623.01
876.128	594.31
876.867	519.48
877.606	595.34
878.345	584.06
879.083	553.31
879.822	547.16
880.561	605.59
881.299	570.74
882.038	583.04
882.777	665.03
883.515	681.43
884.253	7891.63
884.992	610.71
885.73	572.79
886.468	584.06
887.206	716.27
887.944	645.56
888.682	659.91
889.42	597.39
890.157	620.96
890.895	546.14
891.633	1291.84
892.37	611.74
893.108	628.14
893.845	621.99
894.583	618.91
895.32	505.13
896.057	539.98
896.794	605.59
897.531	653.76
898.268	566.64
899.005	537.93
899.742	594.31
900.479	579.96
901.215	591.24
901.952	576.89
902.689	542.04
903.425	512.31
904.162	546.14
904.898	610.71
905.634	672.21
906.37	615.84
907.106	505.13
907.843	613.79
908.579	574.84
909.314	477.45
910.05	571.76
910.786	583.04
911.522	513.33
912.257	633.26
912.993	592.26
913.728	557.41
914.464	587.14
915.199	550.24
915.935	524.61
916.67	562.54
917.405	624.04
918.14	625.06
918.875	609.69
919.61	672.21
920.345	679.38
921.08	692.7
921.814	599.44
922.549	548.19
923.284	813.61
924.018	576.89
924.752	690.65
925.487	611.74
926.221	625.06
926.955	606.61
927.69	539.98
928.424	586.11
929.158	624.04
929.892	567.66
930.625	611.74
931.359	703.97
932.093	640.43
932.827	570.74
933.56	575.86
934.294	518.46
935.027	626.09
935.761	656.83
936.494	579.96
937.227	559.46
937.96	632.24
938.693	638.38
939.426	550.24
940.159	655.81
940.892	611.74
941.625	678.35
942.358	668.11
943.091	574.84
943.823	528.71
944.556	492.83
945.288	572.79
946.021	617.89
946.753	567.66
947.485	644.53
948.217	594.31
948.95	596.36
949.682	531.78
950.414	543.06
951.146	591.24
951.877	555.36
952.609	586.11
953.341	614.81
954.073	701.92
954.804	600.46
955.536	576.89
956.267	631.21
956.998	560.49
957.73	556.39
958.461	548.19
959.192	521.53
959.923	673.23
960.654	603.54
961.385	563.56
962.116	606.61
962.847	571.76
963.578	598.41
964.308	582.01
965.039	511.28
965.769	609.69
966.5	621.99
967.23	569.71
967.961	594.31
968.691	647.61
969.421	513.33
970.151	650.68
970.881	531.78
971.611	662.98
972.341	607.64
973.071	650.68
973.801	681.43
974.53	550.24
975.26	568.69
975.99	588.16
976.719	666.06
977.448	569.71
978.178	560.49
978.907	611.74
979.636	529.73
980.365	644.53
981.095	684.5
981.824	635.31
982.553	588.16
983.281	548.19
984.01	-3.59
984.739	-20.01
985.468	-43.61
986.196	-79.53
986.925	811.56
987.653	590.21
988.382	705
989.11	619.94
989.838	636.33
990.566	723.44
991.295	572.79
992.023	680.4
992.751	693.73
993.478	578.94
994.206	642.48
994.934	598.41
995.662	-12.83
996.389	-48.74
997.117	124.66
997.845	83.62
