Data from White_Bg_QEPB07591_00008.txt Node
Date: Thu Aug 22 15:27:30 EDT 2019
User: wcc
Spectrometer: QEPB0759
Trigger mode: 0
Integration Time (sec): 1.749000E0
Scans to average: 1
Electric dark correction enabled: true
Nonlinearity correction enabled: true
Boxcar width: 0
XAxis mode: Wavelengths
Number of Pixels in Spectrum: 1044
>>>>>Begin Spectral Data<<<<<
197.938	626.21
198.749	610.84
199.559	571.89
200.369	562.66
201.179	586.24
201.988	573.94
202.798	704.1
203.608	572.91
204.417	583.17
205.227	548.31
206.036	638.51
206.846	631.34
207.655	657.99
208.464	639.54
209.273	676.43
210.082	568.81
210.891	567.79
211.7	585.22
212.508	579.07
213.317	556.51
214.125	530.89
214.934	558.56
215.742	578.04
216.55	558.56
217.359	524.74
218.167	566.76
218.975	652.86
219.782	546.26
220.59	534.99
221.398	529.86
222.206	716.4
223.013	615.96
223.82	546.26
224.628	558.56
225.435	585.22
226.242	639.54
227.049	632.36
227.856	551.39
228.663	623.14
229.47	593.42
230.277	608.79
231.083	592.39
231.89	574.97
232.696	618.01
233.502	579.07
234.309	573.94
235.115	638.51
235.921	610.84
236.727	538.06
237.533	646.71
238.339	640.56
239.144	615.96
239.95	727.67
240.756	612.89
241.561	605.71
242.366	542.16
243.172	622.11
243.977	670.28
244.782	618.01
245.587	627.24
246.392	630.31
247.197	526.79
248.001	529.86
248.806	567.79
249.611	563.69
250.415	613.91
251.219	592.39
252.024	622.11
252.828	557.54
253.632	574.97
254.436	560.61
255.24	640.56
256.044	645.69
256.848	585.22
257.651	541.14
258.455	611.86
259.258	598.54
260.062	50050.77
260.865	645.69
261.668	605.71
262.471	558.56
263.274	645.69
264.077	556.51
264.88	594.44
265.683	530.89
266.486	585.22
267.288	663.11
268.091	527.81
268.893	583.17
269.696	608.79
270.498	589.32
271.3	602.64
272.102	675.41
272.904	596.49
273.706	600.59
274.508	592.39
275.309	608.79
276.111	610.84
276.913	521.66
277.714	516.54
278.515	569.84
279.317	647.74
280.118	526.79
280.919	597.52
281.72	581.12
282.521	619.04
283.322	562.66
284.122	621.09
284.923	633.39
285.724	587.27
286.524	585.22
287.325	687.71
288.125	526.79
288.925	564.71
289.725	598.54
290.525	683.61
291.325	601.62
292.125	620.06
292.925	630.31
293.724	548.31
294.524	519.61
295.324	544.21
296.123	610.84
296.922	589.32
297.722	847.55
298.521	613.91
299.32	717.42
300.119	511.41
300.918	609.81
301.716	712.3
302.515	592.39
303.314	659.01
304.112	588.29
304.911	698.98
305.709	585.22
306.507	645.69
307.306	587.27
308.104	583.17
308.902	605.71
309.7	602.64
310.498	664.13
311.295	509.36
312.093	641.59
312.891	693.85
313.688	639.54
314.485	598.54
315.283	713.32
316.08	634.41
316.877	587.27
317.674	588.29
318.471	495.01
319.268	579.07
320.065	615.96
320.862	631.34
321.658	589.32
322.455	644.66
323.251	546.26
324.047	547.29
324.844	721.52
325.64	531.91
326.436	607.76
327.232	579.07
328.028	584.19
328.824	536.01
329.62	643.64
330.415	728.7
331.211	612.89
332.006	593.42
332.802	669.26
333.597	592.39
334.392	661.06
335.187	630.31
335.982	563.69
336.777	623.14
337.572	585.22
338.367	618.01
339.162	653.89
339.956	600.59
340.751	616.99
341.545	651.84
342.34	647.74
343.134	532.94
343.928	663.11
344.722	656.96
345.516	564.71
346.31	562.66
347.104	614.94
347.898	597.52
348.691	597.52
349.485	517.56
350.278	635.44
351.072	693.85
351.865	6599.33
352.658	620.06
353.452	690.78
354.245	578.04
355.038	643.64
355.83	581.12
356.623	572.91
357.416	574.97
358.209	580.09
359.001	567.79
359.794	616.99
360.586	642.61
361.378	664.13
362.17	584.19
362.963	544.21
363.755	693.85
364.546	532.94
365.338	625.19
366.13	637.49
366.922	607.76
367.713	590.34
368.505	600.59
369.296	581.12
370.088	492.96
370.879	547.29
371.67	601.62
372.461	545.24
373.252	590.34
374.043	678.48
374.834	488.86
375.625	627.24
376.415	656.96
377.206	616.99
377.996	580.09
378.787	709.23
379.577	525.76
380.367	500.13
381.157	622.11
381.947	585.22
382.737	621.09
383.527	646.71
384.317	690.78
385.107	582.14
385.896	651.84
386.686	607.76
387.475	630.31
388.265	570.86
389.054	827.06
389.843	587.27
390.632	582.14
391.421	632.36
392.21	671.31
392.999	540.11
393.788	604.69
394.576	631.34
395.365	611.86
396.154	589.32
396.942	559.59
397.73	605.71
398.519	624.16
399.307	623.14
400.095	595.47
400.883	701.03
401.671	605.71
402.459	622.11
403.246	555.49
404.034	574.97
404.822	569.84
405.609	663.11
406.396	696.93
407.184	534.99
407.971	632.36
408.758	652.86
409.545	470.4
410.332	642.61
411.119	649.79
411.906	545.24
412.693	619.04
413.479	649.79
414.266	556.51
415.052	612.89
415.839	600.59
416.625	564.71
417.411	648.76
418.197	665.16
418.983	702.05
419.769	646.71
420.555	595.47
421.341	600.59
422.127	616.99
422.912	593.42
423.698	664.13
424.483	564.71
425.269	551.39
426.054	512.43
426.839	631.34
427.624	557.54
428.409	574.97
429.194	593.42
429.979	623.14
430.764	623.14
431.549	598.54
432.333	596.49
433.118	505.26
433.902	630.31
434.687	580.09
435.471	619.04
436.255	610.84
437.039	584.19
437.823	597.52
438.607	585.22
439.391	601.62
440.175	620.06
440.958	577.02
441.742	595.47
442.526	525.76
443.309	605.71
444.092	679.51
444.876	613.91
445.659	592.39
446.442	674.38
447.225	666.18
448.008	678.48
448.791	649.79
449.573	707.18
450.356	679.51
451.139	653.89
451.921	562.66
452.704	634.41
453.486	592.39
454.268	640.56
455.05	612.89
455.833	577.02
456.615	625.19
457.396	590.34
458.178	635.44
458.96	544.21
459.742	586.24
460.523	574.97
461.305	571.89
462.086	622.11
462.868	716.4
463.649	614.94
464.43	557.54
465.211	691.8
465.992	552.41
466.773	733.82
467.554	583.17
468.335	618.01
469.115	625.19
469.896	534.99
470.676	478.6
471.457	611.86
472.237	609.81
473.018	624.16
473.798	585.22
474.578	620.06
475.358	582.14
476.138	515.51
476.918	534.99
477.697	570.86
478.477	665.16
479.257	615.96
480.036	564.71
480.816	519.61
481.595	622.11
482.374	595.47
483.153	652.86
483.932	620.06
484.711	573.94
485.49	606.74
486.269	562.66
487.048	504.23
487.827	647.74
488.605	562.66
489.384	560.61
490.162	627.24
490.941	682.58
491.719	554.46
492.497	577.02
493.275	577.02
494.053	614.94
494.831	551.39
495.609	599.57
496.387	620.06
497.164	632.36
497.942	610.84
498.72	570.86
499.497	594.44
500.274	516.54
501.052	583.17
501.829	641.59
502.606	560.61
503.383	599.57
504.16	639.54
504.937	623.14
505.714	534.99
506.49	681.56
507.267	516.54
508.043	619.04
508.82	684.63
509.596	527.81
510.373	563.69
511.149	523.71
511.925	580.09
512.701	610.84
513.477	666.18
514.253	597.52
515.029	573.94
515.804	582.14
516.58	673.36
517.356	593.42
518.131	697.95
518.906	551.39
519.682	607.76
520.457	592.39
521.232	605.71
522.007	616.99
522.782	546.26
523.557	529.86
524.332	526.79
525.107	672.33
525.881	559.59
526.656	514.48
527.43	546.26
528.205	572.91
528.979	529.86
529.753	568.81
530.527	647.74
531.302	563.69
532.076	605.71
532.849	573.94
533.623	596.49
534.397	538.06
535.171	599.57
535.944	645.69
536.718	521.66
537.491	709.23
538.265	487.83
539.038	608.79
539.811	618.01
540.584	582.14
541.357	575.99
542.13	693.85
542.903	689.76
543.676	600.59
544.449	593.42
545.221	624.16
545.994	572.91
546.766	607.76
547.539	553.44
548.311	631.34
549.083	600.59
549.855	460.15
550.627	656.96
551.399	587.27
552.171	687.71
552.943	607.76
553.715	545.24
554.486	594.44
555.258	552.41
556.029	527.81
556.801	612.89
557.572	521.66
558.343	563.69
559.114	649.79
559.886	624.16
560.657	585.22
561.427	486.81
562.198	550.36
562.969	621.09
563.74	573.94
564.51	565.74
565.281	682.58
566.051	565.74
566.822	566.76
567.592	582.14
568.362	563.69
569.132	567.79
569.902	758.41
570.672	530.89
571.442	622.11
572.212	623.14
572.982	588.29
573.751	629.29
574.521	592.39
575.29	713.32
576.06	634.41
576.829	591.37
577.598	568.81
578.367	531.91
579.136	549.34
579.905	597.52
580.674	656.96
581.443	625.19
582.212	566.76
582.981	640.56
583.749	565.74
584.518	590.34
585.286	678.48
586.054	739.97
586.823	624.16
587.591	557.54
588.359	657.99
589.127	610.84
589.895	685.66
590.663	688.73
591.431	639.54
592.198	646.71
592.966	648.76
593.734	687.71
594.501	598.54
595.268	608.79
596.036	688.73
596.803	562.66
597.57	564.71
598.337	564.71
599.104	563.69
599.871	635.44
600.638	643.64
601.405	675.41
602.171	557.54
602.938	763.54
603.704	534.99
604.471	551.39
605.237	697.95
606.004	590.34
606.77	654.91
607.536	670.28
608.302	670.28
609.068	671.31
609.834	601.62
610.599	641.59
611.365	560.61
612.131	610.84
612.896	646.71
613.662	700
614.427	641.59
615.193	594.44
615.958	608.79
616.723	642.61
617.488	508.33
618.253	611.86
619.018	611.86
619.783	577.02
620.548	656.96
621.312	593.42
622.077	553.44
622.842	614.94
623.606	733.82
624.37	609.81
625.135	641.59
625.899	635.44
626.663	582.14
627.427	650.81
628.191	625.19
628.955	695.9
629.719	603.66
630.483	603.66
631.246	520.64
632.01	572.91
632.773	693.85
633.537	572.91
634.3	588.29
635.063	561.64
635.827	515.51
636.59	562.66
637.353	644.66
638.116	667.21
638.879	537.04
639.641	709.23
640.404	627.24
641.167	602.64
641.929	641.59
642.692	537.04
643.454	562.66
644.216	636.46
644.979	641.59
645.741	620.06
646.503	675.41
647.265	645.69
648.027	695.9
648.789	555.49
649.551	618.01
650.312	604.69
651.074	573.94
651.835	563.69
652.597	598.54
653.358	654.91
654.12	620.06
654.881	593.42
655.642	630.31
656.403	575.99
657.164	634.41
657.925	620.06
658.686	643.64
659.447	553.44
660.207	546.26
660.968	632.36
661.728	684.63
662.489	604.69
663.249	624.16
664.01	580.09
664.77	654.91
665.53	654.91
666.29	555.49
667.05	645.69
667.81	581.12
668.57	573.94
669.329	568.81
670.089	582.14
670.849	606.74
671.608	641.59
672.368	533.96
673.127	640.56
673.886	564.71
674.646	527.81
675.405	603.66
676.164	645.69
676.923	629.29
677.682	721.52
678.44	629.29
679.199	531.91
679.958	821.94
680.717	616.99
681.475	545.24
682.233	579.07
682.992	509.36
683.75	581.12
684.508	633.39
685.266	554.46
686.024	657.99
686.782	587.27
687.54	651.84
688.298	630.31
689.056	692.83
689.814	541.14
690.571	639.54
691.329	596.49
692.086	584.19
692.843	568.81
693.601	631.34
694.358	665.16
695.115	551.39
695.872	561.64
696.629	527.81
697.386	671.31
698.143	679.51
698.9	549.34
699.656	562.66
700.413	600.59
701.169	646.71
701.926	580.09
702.682	611.86
703.438	581.12
704.195	693.85
704.951	540.11
705.707	533.96
706.463	541.14
707.219	562.66
707.974	536.01
708.73	483.73
709.486	560.61
710.241	575.99
710.997	563.69
711.752	613.91
712.508	590.34
713.263	573.94
714.018	594.44
714.773	593.42
715.528	721.52
716.283	655.94
717.038	557.54
717.793	605.71
718.548	602.64
719.303	616.99
720.057	569.84
720.812	558.56
721.566	529.86
722.321	605.71
723.075	572.91
723.829	624.16
724.583	574.97
725.337	574.97
726.091	664.13
726.845	609.81
727.599	518.59
728.353	602.64
729.106	531.91
729.86	692.83
730.614	529.86
731.367	5947.35
732.12	590.34
732.874	543.19
733.627	603.66
734.38	631.34
735.133	629.29
735.886	570.86
736.639	567.79
737.392	633.39
738.145	549.34
738.897	664.13
739.65	602.64
740.403	623.14
741.155	620.06
741.907	625.19
742.66	695.9
743.412	510.38
744.164	643.64
744.916	521.66
745.668	593.42
746.42	697.95
747.172	611.86
747.924	595.47
748.676	520.64
749.427	574.97
750.179	624.16
750.93	665.16
751.682	537.04
752.433	649.79
753.184	685.66
753.935	564.71
754.687	537.04
755.438	646.71
756.189	597.52
756.939	564.71
757.69	549.34
758.441	642.61
759.192	597.52
759.942	648.76
760.693	643.64
761.443	615.96
762.194	555.49
762.944	544.21
763.694	645.69
764.444	581.12
765.194	628.26
765.944	626.21
766.694	642.61
767.444	684.63
768.194	647.74
768.943	545.24
769.693	653.89
770.443	615.96
771.192	666.18
771.941	487.83
772.691	637.49
773.44	593.42
774.189	653.89
774.938	607.76
775.687	585.22
776.436	608.79
777.185	631.34
777.934	562.66
778.683	616.99
779.431	601.62
780.18	652.86
780.928	581.12
781.677	599.57
782.425	626.21
783.173	659.01
783.922	647.74
784.67	723.57
785.418	663.11
786.166	713.32
786.914	578.04
787.661	621.09
788.409	611.86
789.157	585.22
789.904	587.27
790.652	668.23
791.399	634.41
792.147	636.46
792.894	662.08
793.641	604.69
794.388	5255.95
795.136	645.69
795.883	575.99
796.629	675.41
797.376	526.79
798.123	571.89
798.87	527.81
799.616	571.89
800.363	711.28
801.109	697.95
801.856	645.69
802.602	493.98
803.349	701.03
804.095	729.72
804.841	613.91
805.587	606.74
806.333	627.24
807.079	655.94
807.825	621.09
808.57	618.01
809.316	710.25
810.062	639.54
810.807	666.18
811.553	739.97
812.298	689.76
813.043	630.31
813.788	684.63
814.534	619.04
815.279	710.25
816.024	637.49
816.769	631.34
817.514	665.16
818.258	629.29
819.003	697.95
819.748	15439.71
820.492	616.99
821.237	4729.11
821.981	601.62
822.726	710.25
823.47	708.2
824.214	700
824.958	634.41
825.702	641.59
826.446	664.13
827.19	672.33
827.934	721.52
828.678	653.89
829.421	742.02
830.165	657.99
830.909	635.44
831.652	620.06
832.395	703.08
833.139	682.58
833.882	779.93
834.625	635.44
835.368	627.24
836.111	568.81
836.854	611.86
837.597	653.89
838.34	674.38
839.083	668.23
839.825	683.61
840.568	556.51
841.311	642.61
842.053	693.85
842.795	564.71
843.538	612.89
844.28	569.84
845.022	552.41
845.764	753.29
846.506	525.76
847.248	588.29
847.99	648.76
848.732	646.71
849.474	586.24
850.215	518.59
850.957	506.28
851.698	572.91
852.44	668.23
853.181	583.17
853.922	688.73
854.664	601.62
855.405	711.28
856.146	521.66
856.887	595.47
857.628	673.36
858.369	528.84
859.109	691.8
859.85	574.97
860.591	682.58
861.331	560.61
862.072	511.41
862.812	477.58
863.553	545.24
864.293	689.76
865.033	582.14
865.773	621.09
866.513	540.11
867.253	549.34
867.993	580.09
868.733	620.06
869.473	636.46
870.213	652.86
870.952	536.01
871.692	595.47
872.431	561.64
873.171	600.59
873.91	575.99
874.649	501.16
875.388	595.47
876.128	589.32
876.867	509.36
877.606	600.59
878.345	580.09
879.083	547.29
879.822	539.09
880.561	597.52
881.299	590.34
882.038	589.32
882.777	643.64
883.515	680.53
884.253	7913.96
884.992	599.57
885.73	586.24
886.468	595.47
887.206	721.52
887.944	642.61
888.682	643.64
889.42	616.99
890.157	625.19
890.895	551.39
891.633	1291.97
892.37	596.49
893.108	625.19
893.845	612.89
894.583	611.86
895.32	518.59
896.057	553.44
896.794	608.79
897.531	640.56
898.268	575.99
899.005	553.44
899.742	594.44
900.479	582.14
901.215	585.22
901.952	577.02
902.689	521.66
903.425	506.28
904.162	536.01
904.898	601.62
905.634	675.41
906.37	613.91
907.106	501.16
907.843	633.39
908.579	572.91
909.314	462.2
910.05	588.29
910.786	593.42
911.522	505.26
912.257	638.51
912.993	588.29
913.728	557.54
914.464	569.84
915.199	546.26
915.935	518.59
916.67	552.41
917.405	619.04
918.14	608.79
918.875	609.81
919.61	671.31
920.345	679.51
921.08	686.68
921.814	603.66
922.549	546.26
923.284	813.74
924.018	568.81
924.752	687.71
925.487	602.64
926.221	630.31
926.955	601.62
927.69	531.91
928.424	590.34
929.158	618.01
929.892	555.49
930.625	631.34
931.359	700
932.093	628.26
932.827	564.71
933.56	566.76
934.294	509.36
935.027	610.84
935.761	648.76
936.494	583.17
937.227	543.19
937.96	638.51
938.693	650.81
939.426	547.29
940.159	682.58
940.892	606.74
941.625	680.53
942.358	662.08
943.091	575.99
943.823	539.09
944.556	508.33
945.288	571.89
946.021	621.09
946.753	567.79
947.485	647.74
948.217	599.57
948.95	615.96
949.682	524.74
950.414	533.96
951.146	583.17
951.877	579.07
952.609	599.57
953.341	614.94
954.073	681.56
954.804	607.76
955.536	573.94
956.267	619.04
956.998	546.26
957.73	550.36
958.461	545.24
959.192	518.59
959.923	683.61
960.654	607.76
961.385	579.07
962.116	603.66
962.847	560.61
963.578	586.24
964.308	577.02
965.039	510.38
965.769	610.84
966.5	621.09
967.23	579.07
967.961	603.66
968.691	630.31
969.421	520.64
970.151	645.69
970.881	527.81
971.611	666.18
972.341	601.62
973.071	664.13
973.801	672.33
974.53	564.71
975.26	573.94
975.99	592.39
976.719	654.91
977.448	560.61
978.178	570.86
978.907	619.04
979.636	526.79
980.365	647.74
981.095	697.95
981.824	654.91
982.553	594.44
983.281	574.97
984.01	4.75
984.739	-31.17
985.468	-56.82
986.196	-79.4
986.925	816.81
987.653	594.44
988.382	695.9
989.11	630.31
989.838	643.64
990.566	714.35
991.295	587.27
992.023	684.63
992.751	677.46
993.478	573.94
994.206	643.64
994.934	612.89
995.662	-8.59
996.389	-44.51
997.117	134.02
997.845	81.7
