Data from White_QEPB07591_00007.txt Node
Date: Thu Aug 22 15:26:38 EDT 2019
User: wcc
Spectrometer: QEPB0759
Trigger mode: 0
Integration Time (sec): 1.749000E0
Scans to average: 1
Electric dark correction enabled: true
Nonlinearity correction enabled: true
Boxcar width: 0
XAxis mode: Wavelengths
Number of Pixels in Spectrum: 1044
>>>>>Begin Spectral Data<<<<<
197.938	626.73
198.749	603.15
199.559	552.93
200.369	564.2
201.179	583.68
201.988	584.7
202.798	703.59
203.608	564.2
204.417	582.65
205.227	533.45
206.036	619.55
206.846	633.9
207.655	666.7
208.464	625.7
209.273	657.47
210.082	564.2
210.891	573.43
211.7	569.33
212.508	571.38
213.317	542.68
214.125	515
214.934	561.13
215.742	566.25
216.55	569.33
217.359	523.2
218.167	546.78
218.975	661.57
219.782	547.8
220.59	540.63
221.398	530.37
222.206	701.54
223.013	589.83
223.82	534.47
224.628	548.83
225.435	573.43
226.242	638
227.049	622.63
227.856	569.33
228.663	613.4
229.47	589.83
230.277	590.85
231.083	588.8
231.89	551.9
232.696	622.63
233.502	573.43
234.309	560.1
235.115	627.75
235.921	608.28
236.727	523.2
237.533	643.12
238.339	626.73
239.144	603.15
239.95	716.91
240.756	618.53
241.561	601.1
242.366	548.83
243.172	623.65
243.977	664.65
244.782	632.88
245.587	619.55
246.392	631.85
247.197	516.02
248.001	535.5
248.806	558.05
249.611	571.38
250.415	615.45
251.219	598.03
252.024	599.05
252.828	546.78
253.632	565.23
254.436	542.68
255.24	650.3
256.044	664.65
256.848	572.4
257.651	544.73
258.455	604.18
259.258	588.8
260.062	50438.42
260.865	647.22
261.668	617.5
262.471	554.98
263.274	627.75
264.077	535.5
264.88	581.63
265.683	531.4
266.486	581.63
267.288	662.6
268.091	525.25
268.893	593.93
269.696	619.55
270.498	604.18
271.3	602.13
272.102	663.62
272.904	599.05
273.706	595.98
274.508	590.85
275.309	608.28
276.111	607.25
276.913	528.32
277.714	500.65
278.515	556
279.317	643.12
280.118	524.22
280.919	604.18
281.72	577.53
282.521	624.68
283.322	553.95
284.122	593.93
284.923	633.9
285.724	578.55
286.524	572.4
287.325	694.37
288.125	533.45
288.925	570.35
289.725	602.13
290.525	685.14
291.325	589.83
292.125	611.35
292.925	635.95
293.724	542.68
294.524	520.12
295.324	546.78
296.123	601.1
296.922	585.73
297.722	830.65
298.521	599.05
299.32	717.94
300.119	522.17
300.918	619.55
301.716	723.06
302.515	582.65
303.314	658.5
304.112	577.53
304.911	694.37
305.709	584.7
306.507	646.2
307.306	591.88
308.104	571.38
308.902	606.23
309.7	583.68
310.498	663.62
311.295	517.05
312.093	656.45
312.891	687.19
313.688	647.22
314.485	600.08
315.283	722.04
316.08	610.33
316.877	588.8
317.674	589.83
318.471	473.99
319.268	559.08
320.065	624.68
320.862	629.8
321.658	582.65
322.455	646.2
323.251	536.53
324.047	545.75
324.844	700.52
325.64	530.37
326.436	601.1
327.232	565.23
328.028	582.65
328.824	549.85
329.62	650.3
330.415	718.96
331.211	630.83
332.006	594.95
332.802	658.5
333.597	579.58
334.392	650.3
335.187	624.68
335.982	573.43
336.777	641.08
337.572	580.6
338.367	613.4
339.162	647.22
339.956	580.6
340.751	638
341.545	645.17
342.34	630.83
343.134	537.55
343.928	664.65
344.722	654.4
345.516	560.1
346.31	544.73
347.104	598.03
347.898	605.2
348.691	603.15
349.485	516.02
350.278	626.73
351.072	697.44
351.865	7350
352.658	621.6
353.452	681.04
354.245	564.2
355.038	642.1
355.83	588.8
356.623	573.43
357.416	568.3
358.209	593.93
359.001	560.1
359.794	613.4
360.586	635.95
361.378	653.37
362.17	585.73
362.963	532.42
363.755	683.09
364.546	508.85
365.338	616.48
366.13	623.65
366.922	618.53
367.713	580.6
368.505	591.88
369.296	583.68
370.088	494.49
370.879	542.68
371.67	606.23
372.461	541.65
373.252	600.08
374.043	674.9
374.834	494.49
375.625	631.85
376.415	662.6
377.206	611.35
377.996	574.45
378.787	700.52
379.577	516.02
380.367	495.52
381.157	616.48
381.947	585.73
382.737	618.53
383.527	618.53
384.317	693.34
385.107	594.95
385.896	663.62
386.686	623.65
387.475	639.03
388.265	594.95
389.054	842.94
389.843	610.33
390.632	625.7
391.421	646.2
392.21	708.71
392.999	588.8
393.788	654.4
394.576	662.6
395.365	658.5
396.154	625.7
396.942	609.3
397.73	658.5
398.519	671.82
399.307	687.19
400.095	678.99
400.883	758.92
401.671	662.6
402.459	690.27
403.246	636.98
404.034	676.95
404.822	658.5
405.609	752.78
406.396	776.34
407.184	624.68
407.971	733.31
408.758	729.21
409.545	573.43
410.332	766.1
411.119	753.8
411.906	646.2
412.693	753.8
413.479	784.54
414.266	714.86
415.052	776.34
415.839	762
416.625	736.38
417.411	828.6
418.197	842.94
418.983	880.84
419.769	836.79
420.555	758.92
421.341	768.15
422.127	768.15
422.912	754.83
423.698	846.01
424.483	744.58
425.269	741.5
426.054	700.52
426.839	826.55
427.624	765.07
428.409	786.59
429.194	809.13
429.979	840.89
430.764	866.5
431.549	840.89
432.333	818.35
433.118	754.83
433.902	873.67
434.687	815.28
435.471	858.31
436.255	860.35
437.039	850.11
437.823	871.62
438.607	852.16
439.391	868.55
440.175	871.62
440.958	856.26
441.742	863.43
442.526	829.62
443.309	902.36
444.092	964.84
444.876	905.43
445.659	892.11
446.442	975.08
447.225	973.03
448.008	989.42
448.791	1008.88
449.573	1131.76
450.356	1064.18
451.139	1039.6
451.921	950.5
452.704	1014
453.486	976.1
454.268	1049.84
455.05	1037.55
455.833	1005.81
456.615	1073.39
457.396	1047.79
458.178	1084.66
458.96	982.25
459.742	1046.77
460.523	1028.34
461.305	1066.23
462.086	1116.4
462.868	1224.92
463.649	1111.28
464.43	1053.94
465.211	1229.02
465.992	1112.3
466.773	1333.42
467.554	1234.14
468.335	1252.56
469.115	1234.14
469.896	1125.62
470.676	1060.08
471.457	1207.52
472.237	1266.89
473.018	1275.08
473.798	1222.88
474.578	1223.9
475.358	1151.21
476.138	1103.09
476.918	1093.87
477.697	1148.14
478.477	1264.84
479.257	1232.09
480.036	1230.04
480.816	1195.23
481.595	1337.51
482.374	1302.72
483.153	1365.15
483.932	1322.16
484.711	1282.24
485.49	1289.41
486.269	1268.94
487.048	1217.76
487.827	1366.17
488.605	1300.67
489.384	1309.88
490.162	1415.29
490.941	1506.35
491.719	1443.94
492.497	1476.68
493.275	1432.68
494.053	1474.63
494.831	1397.89
495.609	1466.45
496.387	1475.66
497.164	1459.29
497.942	1462.36
498.72	1436.78
499.497	1465.43
500.274	1377.43
501.052	1472.59
501.829	1505.33
502.606	1469.52
503.383	1513.51
504.16	1554.43
504.937	1542.16
505.714	1460.31
506.49	1612.74
507.267	1454.17
508.043	1563.64
508.82	1642.4
509.596	1507.37
510.373	1540.11
511.149	1520.67
511.925	1586.14
512.701	1609.67
513.477	1692.51
514.253	1642.4
515.029	1615.81
515.804	1657.74
516.58	1752.84
517.356	1672.06
518.131	1791.7
518.906	1634.22
519.682	1699.67
520.457	1707.85
521.232	1731.37
522.007	1768.18
522.782	1692.51
523.557	1698.65
524.332	1687.4
525.107	1858.15
525.881	1739.55
526.656	1662.85
527.43	1720.12
528.205	1739.55
528.979	1701.71
529.753	1740.57
530.527	1809.08
531.302	1739.55
532.076	1764.09
532.849	1732.39
533.623	1747.73
534.397	1681.26
535.171	1760
535.944	1786.59
536.718	1664.9
537.491	1833.62
538.265	1640.35
539.038	1760
539.811	1755.91
540.584	1738.53
541.357	1704.78
542.13	1820.32
542.903	1836.68
543.676	1746.71
544.449	1745.69
545.221	1782.5
545.994	1713.99
546.766	1770.23
547.539	1703.76
548.311	1795.79
549.083	1750.8
549.855	1612.74
550.627	1831.57
551.399	1768.18
552.171	1869.4
552.943	1806.01
553.715	1736.48
554.486	1795.79
555.258	1782.5
556.029	1782.5
556.801	1845.88
557.572	1773.29
558.343	1821.35
559.114	1918.46
559.886	1921.53
560.657	1881.66
561.427	1813.17
562.198	1853.04
562.969	1927.66
563.74	1897
564.51	1867.35
565.281	1996.14
566.051	1870.42
566.822	1890.86
567.592	1893.93
568.362	1892.91
569.132	1869.4
569.902	2067.67
570.672	1830.55
571.442	1916.42
572.212	1901.08
572.982	1849.97
573.751	1901.08
574.521	1872.46
575.29	1979.79
576.06	1890.86
576.829	1841.79
577.598	1825.44
578.367	1790.67
579.136	1784.54
579.905	1865.31
580.674	1919.48
581.443	1893.93
582.212	1842.82
582.981	1906.2
583.749	1809.08
584.518	1842.82
585.286	1931.75
586.054	1972.63
586.823	1864.28
587.591	1816.23
588.359	1929.7
589.127	1889.84
589.895	1940.95
590.663	1955.26
591.431	1901.08
592.198	1893.93
592.966	1905.17
593.734	1949.12
594.501	1827.48
595.268	1856.11
596.036	1955.26
596.803	1802.94
597.57	1801.92
598.337	1781.47
599.104	1774.32
599.871	1839.75
600.638	1835.66
601.405	1846.91
602.171	1736.48
602.938	1926.64
603.704	1703.76
604.471	1724.21
605.237	1850.99
606.004	1740.57
606.77	1801.92
607.536	1829.53
608.302	1825.44
609.068	1824.41
609.834	1737.51
610.599	1821.35
611.365	1702.74
612.131	1746.71
612.896	1804.99
613.662	1846.91
614.427	1781.47
615.193	1750.8
615.958	1766.14
616.723	1777.38
617.488	1642.4
618.253	1755.91
619.018	1756.93
619.783	1697.62
620.548	1818.28
621.312	1716.03
622.077	1660.81
622.842	1720.12
623.606	1869.4
624.37	1701.71
625.135	1746.71
625.899	1720.12
626.663	1649.56
627.427	1702.74
628.191	1673.08
628.955	1744.66
629.719	1632.17
630.483	1650.58
631.246	1531.93
632.01	1581.03
632.773	1690.47
633.537	1545.23
634.3	1565.68
635.063	1504.3
635.827	1453.15
636.59	1493.05
637.353	1576.94
638.116	1573.87
638.879	1437.8
639.641	1583.07
640.404	1506.35
641.167	1448.03
641.929	1504.3
642.692	1387.66
643.454	1395.85
644.216	1475.66
644.979	1472.59
645.741	1465.43
646.503	1493.05
647.265	1461.33
648.027	1500.21
648.789	1365.15
649.551	1428.59
650.312	1385.61
651.074	1344.68
651.835	1351.84
652.597	1362.08
653.358	1388.68
654.12	1344.68
654.881	1318.07
655.642	1335.47
656.403	1301.69
657.164	1362.08
657.925	1315
658.686	1360.03
659.447	1265.87
660.207	1273.03
660.968	1344.68
661.728	1406.08
662.489	1350.82
663.249	1345.7
664.01	1278.15
664.77	1398.92
665.53	1384.59
666.29	1302.72
667.05	1401.99
667.81	1323.19
668.57	1307.83
669.329	1308.86
670.089	1320.12
670.849	1345.7
671.608	1400.96
672.368	1280.2
673.127	1391.75
673.886	1293.5
674.646	1279.17
675.405	1340.58
676.164	1363.1
676.923	1362.08
677.682	1437.8
678.44	1331.37
679.199	1270.99
679.958	1501.23
680.717	1324.21
681.475	1280.2
682.233	1316.02
682.992	1247.44
683.75	1300.67
684.508	1350.82
685.266	1245.4
686.024	1327.28
686.782	1246.42
687.54	1312.95
688.298	1303.74
689.056	1329.33
689.814	1175.78
690.571	1244.37
691.329	1215.71
692.086	1197.28
692.843	1155.31
693.601	1218.78
694.358	1243.35
695.115	1091.83
695.872	1106.16
696.629	1049.84
697.386	1182.95
698.143	1203.42
698.9	1062.13
699.656	1081.59
700.413	1079.54
701.169	1144.04
701.926	1078.51
702.682	1087.73
703.438	1050.87
704.195	1180.9
704.951	1005.81
705.707	997.61
706.463	999.66
707.219	1029.36
707.974	1018.09
708.73	958.69
709.486	1034.48
710.241	1036.53
710.997	1039.6
711.752	1055.99
712.508	1033.46
713.263	1020.14
714.018	1030.38
714.773	1016.05
715.528	1132.78
716.283	1049.84
717.038	918.74
717.793	976.1
718.548	935.13
719.303	940.26
720.057	879.82
720.812	872.65
721.566	836.79
722.321	879.82
723.075	860.35
723.829	897.23
724.583	811.18
725.337	848.06
726.091	915.67
726.845	868.55
727.599	763.02
728.353	856.26
729.106	784.54
729.86	919.77
730.614	773.27
731.367	6166.63
732.12	828.6
732.874	786.59
733.627	847.04
734.38	857.28
735.133	840.89
735.886	783.52
736.639	763.02
737.392	827.57
738.145	751.75
738.897	872.65
739.65	792.74
740.403	801.96
741.155	789.66
741.907	800.93
742.66	857.28
743.412	658.5
744.164	760.97
744.916	638
745.668	688.22
746.42	754.83
747.172	641.08
747.924	619.55
748.676	541.65
749.427	574.45
750.179	634.93
750.93	644.15
751.682	528.32
752.433	645.17
753.184	689.24
753.935	573.43
754.687	543.7
755.438	626.73
756.189	597
756.939	572.4
757.69	550.88
758.441	654.4
759.192	602.13
759.942	658.5
760.693	635.95
761.443	622.63
762.194	549.85
762.944	545.75
763.694	641.08
764.444	583.68
765.194	638
765.944	623.65
766.694	644.15
767.444	667.72
768.194	644.15
768.943	559.08
769.693	656.45
770.443	620.58
771.192	645.17
771.941	494.49
772.691	640.05
773.44	599.05
774.189	655.42
774.938	615.45
775.687	577.53
776.436	608.28
777.185	642.1
777.934	550.88
778.683	604.18
779.431	601.1
780.18	652.35
780.928	581.63
781.677	592.9
782.425	617.5
783.173	659.52
783.922	660.55
784.67	719.99
785.418	669.77
786.166	706.66
786.914	567.28
787.661	619.55
788.409	608.28
789.157	604.18
789.904	591.88
790.652	668.75
791.399	647.22
792.147	617.5
792.894	650.3
793.641	599.05
794.388	5249.36
795.136	636.98
795.883	575.48
796.629	652.35
797.376	525.25
798.123	559.08
798.87	533.45
799.616	564.2
800.363	707.69
801.109	702.56
801.856	654.4
802.602	488.34
803.349	704.61
804.095	733.31
804.841	611.35
805.587	627.75
806.333	633.9
807.079	649.27
807.825	624.68
808.57	611.35
809.316	709.74
810.062	619.55
810.807	645.17
811.553	732.28
812.298	690.27
813.043	628.78
813.788	683.09
814.534	613.4
815.279	699.49
816.024	644.15
816.769	615.45
817.514	665.67
818.258	625.7
819.003	714.86
819.748	15317.27
820.492	628.78
821.237	4714.38
821.981	586.75
822.726	711.79
823.47	698.47
824.214	694.37
824.958	628.78
825.702	645.17
826.446	666.7
827.19	672.85
827.934	733.31
828.678	662.6
829.421	732.28
830.165	656.45
830.909	638
831.652	610.33
832.395	692.32
833.139	685.14
833.882	780.44
834.625	627.75
835.368	623.65
836.111	566.25
836.854	610.33
837.597	648.25
838.34	676.95
839.083	662.6
839.825	687.19
840.568	537.55
841.311	626.73
842.053	697.44
842.795	567.28
843.538	600.08
844.28	568.3
845.022	552.93
845.764	765.07
846.506	534.47
847.248	582.65
847.99	635.95
848.732	642.1
849.474	600.08
850.215	539.6
850.957	509.87
851.698	560.1
852.44	658.5
853.181	587.78
853.922	691.29
854.664	582.65
855.405	708.71
856.146	526.27
856.887	604.18
857.628	702.56
858.369	522.17
859.109	682.07
859.85	579.58
860.591	690.27
861.331	556
862.072	519.1
862.812	492.44
863.553	545.75
864.293	673.87
865.033	573.43
865.773	609.3
866.513	541.65
867.253	547.8
867.993	564.2
868.733	595.98
869.473	621.6
870.213	661.57
870.952	527.3
871.692	586.75
872.431	538.58
873.171	587.78
873.91	562.15
874.649	488.34
875.388	600.08
876.128	583.68
876.867	504.75
877.606	606.23
878.345	563.18
879.083	568.3
879.822	541.65
880.561	601.1
881.299	573.43
882.038	587.78
882.777	638
883.515	685.14
884.253	7909.42
884.992	607.25
885.73	595.98
886.468	580.6
887.206	717.94
887.944	647.22
888.682	650.3
889.42	604.18
890.157	617.5
890.895	546.78
891.633	1266.89
892.37	605.2
893.108	624.68
893.845	610.33
894.583	606.23
895.32	516.02
896.057	542.68
896.794	607.25
897.531	648.25
898.268	565.23
899.005	558.05
899.742	577.53
900.479	566.25
901.215	589.83
901.952	578.55
902.689	521.15
903.425	508.85
904.162	520.12
904.898	604.18
905.634	674.9
906.37	618.53
907.106	502.7
907.843	605.2
908.579	581.63
909.314	453.49
910.05	573.43
910.786	578.55
911.522	511.92
912.257	645.17
912.993	587.78
913.728	550.88
914.464	582.65
915.199	549.85
915.935	518.07
916.67	553.95
917.405	628.78
918.14	619.55
918.875	610.33
919.61	660.55
920.345	659.52
921.08	685.14
921.814	609.3
922.549	538.58
923.284	815.28
924.018	559.08
924.752	666.7
925.487	601.1
926.221	632.88
926.955	593.93
927.69	525.25
928.424	584.7
929.158	625.7
929.892	553.95
930.625	616.48
931.359	701.54
932.093	627.75
932.827	557.03
933.56	569.33
934.294	494.49
935.027	611.35
935.761	649.27
936.494	563.18
937.227	544.73
937.96	623.65
938.693	635.95
939.426	548.83
940.159	677.97
940.892	600.08
941.625	672.85
942.358	650.3
943.091	582.65
943.823	539.6
944.556	513.97
945.288	567.28
946.021	614.43
946.753	569.33
947.485	634.93
948.217	592.9
948.95	603.15
949.682	522.17
950.414	539.6
951.146	599.05
951.877	571.38
952.609	588.8
953.341	603.15
954.073	691.29
954.804	600.08
955.536	575.48
956.267	630.83
956.998	554.98
957.73	529.35
958.461	536.53
959.192	528.32
959.923	661.57
960.654	610.33
961.385	562.15
962.116	599.05
962.847	557.03
963.578	589.83
964.308	575.48
965.039	503.72
965.769	613.4
966.5	619.55
967.23	574.45
967.961	604.18
968.691	645.17
969.421	516.02
970.151	627.75
970.881	515
971.611	653.37
972.341	594.95
973.071	652.35
973.801	671.82
974.53	562.15
975.26	571.38
975.99	592.9
976.719	658.5
977.448	565.23
978.178	579.58
978.907	619.55
979.636	531.4
980.365	648.25
981.095	672.85
981.824	643.12
982.553	595.98
983.281	544.73
984.01	-0.9
984.739	-16.29
985.468	-46.05
986.196	-82.99
986.925	819.38
987.653	580.6
988.382	697.44
989.11	621.6
989.838	641.08
990.566	709.74
991.295	575.48
992.023	673.87
992.751	677.97
993.478	581.63
994.206	629.8
994.934	590.85
995.662	-17.32
996.389	-48.1
997.117	130.43
997.845	81.19
