Data from White_Bg_QEPB07591_00007.txt Node
Date: Thu Aug 22 15:27:29 EDT 2019
User: wcc
Spectrometer: QEPB0759
Trigger mode: 0
Integration Time (sec): 1.749000E0
Scans to average: 1
Electric dark correction enabled: true
Nonlinearity correction enabled: true
Boxcar width: 0
XAxis mode: Wavelengths
Number of Pixels in Spectrum: 1044
>>>>>Begin Spectral Data<<<<<
197.938	634.54
198.749	604.82
199.559	567.92
200.369	556.64
201.179	595.59
201.988	600.72
202.798	713.45
203.608	569.97
204.417	588.42
205.227	552.54
206.036	624.29
206.846	626.34
207.655	650.94
208.464	619.17
209.273	664.26
210.082	573.04
210.891	577.14
211.7	584.32
212.508	568.94
213.317	548.44
214.125	511.54
214.934	560.74
215.742	569.97
216.55	561.77
217.359	533.07
218.167	566.89
218.975	645.82
219.782	561.77
220.59	537.17
221.398	521.79
222.206	704.23
223.013	605.84
223.82	539.22
224.628	563.82
225.435	575.09
226.242	639.67
227.049	626.34
227.856	559.72
228.663	620.19
229.47	585.34
230.277	589.44
231.083	574.07
231.89	550.49
232.696	619.17
233.502	569.97
234.309	563.82
235.115	617.12
235.921	601.74
236.727	529.99
237.533	646.84
238.339	633.52
239.144	601.74
239.95	734.97
240.756	607.89
241.561	603.79
242.366	562.79
243.172	616.09
243.977	678.61
244.782	619.17
245.587	625.32
246.392	648.89
247.197	525.89
248.001	529.99
248.806	578.17
249.611	566.89
250.415	610.97
251.219	596.62
252.024	606.87
252.828	557.67
253.632	566.89
254.436	541.27
255.24	641.72
256.044	654.01
256.848	580.22
257.651	552.54
258.455	596.62
259.258	604.82
260.062	48724.94
260.865	636.59
261.668	628.39
262.471	554.59
263.274	632.49
264.077	545.37
264.88	581.24
265.683	543.32
266.486	584.32
267.288	645.82
268.091	517.69
268.893	581.24
269.696	602.77
270.498	599.69
271.3	605.84
272.102	667.34
272.904	582.27
273.706	597.64
274.508	589.44
275.309	608.92
276.111	599.69
276.913	532.04
277.714	509.49
278.515	535.12
279.317	654.01
280.118	521.79
280.919	604.82
281.72	588.42
282.521	629.42
283.322	562.79
284.122	623.27
284.923	627.37
285.724	594.57
286.524	572.02
287.325	687.83
288.125	529.99
288.925	563.82
289.725	601.74
290.525	678.61
291.325	596.62
292.125	617.12
292.925	637.62
293.724	527.94
294.524	522.81
295.324	537.17
296.123	592.52
296.922	586.37
297.722	874.31
298.521	606.87
299.32	720.63
300.119	500.26
300.918	623.27
301.716	707.3
302.515	582.27
303.314	656.06
304.112	565.87
304.911	686.81
305.709	579.19
306.507	652.99
307.306	592.52
308.104	576.12
308.902	592.52
309.7	572.02
310.498	649.91
311.295	512.56
312.093	650.94
312.891	695.01
313.688	629.42
314.485	604.82
315.283	730.87
316.08	621.22
316.877	576.12
317.674	578.17
318.471	483.86
319.268	580.22
320.065	625.32
320.862	645.82
321.658	582.27
322.455	643.77
323.251	547.42
324.047	541.27
324.844	703.21
325.64	533.07
326.436	605.84
327.232	581.24
328.028	570.99
328.824	554.59
329.62	655.04
330.415	737.02
331.211	606.87
332.006	606.87
332.802	649.91
333.597	584.32
334.392	660.16
335.187	628.39
335.982	563.82
336.777	638.64
337.572	578.17
338.367	629.42
339.162	658.11
339.956	605.84
340.751	623.27
341.545	642.74
342.34	649.91
343.134	539.22
343.928	672.46
344.722	660.16
345.516	556.64
346.31	543.32
347.104	604.82
347.898	616.09
348.691	602.77
349.485	521.79
350.278	621.22
351.072	709.35
351.865	7095.98
352.658	614.04
353.452	685.78
354.245	577.14
355.038	626.34
355.83	587.39
356.623	576.12
357.416	572.02
358.209	607.89
359.001	562.79
359.794	609.94
360.586	638.64
361.378	658.11
362.17	583.29
362.963	539.22
363.755	693.98
364.546	518.71
365.338	625.32
366.13	647.86
366.922	606.87
367.713	579.19
368.505	587.39
369.296	568.94
370.088	497.19
370.879	540.24
371.67	603.79
372.461	552.54
373.252	596.62
374.043	670.41
374.834	498.21
375.625	620.19
376.415	670.41
377.206	603.79
377.996	575.09
378.787	708.33
379.577	526.91
380.367	496.16
381.157	616.09
381.947	578.17
382.737	611.99
383.527	626.34
384.317	693.98
385.107	581.24
385.896	655.04
386.686	605.84
387.475	635.57
388.265	575.09
389.054	839.48
389.843	590.47
390.632	600.72
391.421	615.07
392.21	674.51
392.999	550.49
393.788	606.87
394.576	631.47
395.365	622.24
396.154	596.62
396.942	558.69
397.73	594.57
398.519	603.79
399.307	616.09
400.095	596.62
400.883	682.71
401.671	604.82
402.459	614.04
403.246	567.92
404.034	576.12
404.822	574.07
405.609	667.34
406.396	686.81
407.184	538.19
407.971	646.84
408.758	634.54
409.545	470.53
410.332	646.84
411.119	644.79
411.906	536.14
412.693	630.44
413.479	652.99
414.266	558.69
415.052	618.14
415.839	592.52
416.625	568.94
417.411	639.67
418.197	667.34
418.983	705.25
419.769	651.96
420.555	595.59
421.341	595.59
422.127	597.64
422.912	591.49
423.698	671.44
424.483	578.17
425.269	578.17
426.054	500.26
426.839	624.29
427.624	564.84
428.409	572.02
429.194	599.69
429.979	634.54
430.764	621.22
431.549	613.02
432.333	590.47
433.118	518.71
433.902	625.32
434.687	578.17
435.471	616.09
436.255	617.12
437.039	568.94
437.823	597.64
438.607	585.34
439.391	609.94
440.175	603.79
440.958	578.17
441.742	590.47
442.526	522.81
443.309	606.87
444.092	670.41
444.876	598.67
445.659	593.54
446.442	683.73
447.225	666.31
448.008	676.56
448.791	650.94
449.573	695.01
450.356	673.49
451.139	648.89
451.921	555.62
452.704	620.19
453.486	596.62
454.268	639.67
455.05	624.29
455.833	576.12
456.615	625.32
457.396	605.84
458.178	630.44
458.96	524.86
459.742	595.59
460.523	576.12
461.305	575.09
462.086	628.39
462.868	709.35
463.649	606.87
464.43	547.42
465.211	708.33
465.992	565.87
466.773	725.75
467.554	602.77
468.335	628.39
469.115	624.29
469.896	531.02
470.676	474.63
471.457	623.27
472.237	600.72
473.018	603.79
473.798	600.72
474.578	627.37
475.358	595.59
476.138	516.66
476.918	547.42
477.697	570.99
478.477	670.41
479.257	607.89
480.036	560.74
480.816	535.12
481.595	614.04
482.374	579.19
483.153	665.29
483.932	610.97
484.711	589.44
485.49	607.89
486.269	550.49
487.048	516.66
487.827	640.69
488.605	569.97
489.384	557.67
490.162	614.04
490.941	673.49
491.719	565.87
492.497	581.24
493.275	568.94
494.053	610.97
494.831	556.64
495.609	608.92
496.387	630.44
497.164	619.17
497.942	608.92
498.72	579.19
499.497	588.42
500.274	511.54
501.052	584.32
501.829	645.82
502.606	562.79
503.383	603.79
504.16	631.47
504.937	621.22
505.714	543.32
506.49	680.66
507.267	522.81
508.043	634.54
508.82	681.68
509.596	531.02
510.373	551.52
511.149	526.91
511.925	556.64
512.701	605.84
513.477	680.66
514.253	603.79
515.029	581.24
515.804	580.22
516.58	674.51
517.356	593.54
518.131	695.01
518.906	533.07
519.682	596.62
520.457	586.37
521.232	614.04
522.007	631.47
522.782	560.74
523.557	532.04
524.332	537.17
525.107	666.31
525.881	549.47
526.656	507.44
527.43	542.29
528.205	580.22
528.979	536.14
529.753	559.72
530.527	642.74
531.302	544.34
532.076	600.72
532.849	570.99
533.623	587.39
534.397	532.04
535.171	598.67
535.944	645.82
536.718	523.84
537.491	704.23
538.265	486.93
539.038	603.79
539.811	611.99
540.584	580.22
541.357	567.92
542.13	697.06
542.903	693.98
543.676	592.52
544.449	606.87
545.221	625.32
545.994	568.94
546.766	600.72
547.539	565.87
548.311	630.44
549.083	598.67
549.855	451.05
550.627	638.64
551.399	590.47
552.171	689.88
552.943	634.54
553.715	554.59
554.486	589.44
555.258	547.42
556.029	537.17
556.801	629.42
557.572	522.81
558.343	557.67
559.114	642.74
559.886	622.24
560.657	596.62
561.427	501.29
562.198	542.29
562.969	604.82
563.74	570.99
564.51	558.69
565.281	692.96
566.051	566.89
566.822	564.84
567.592	572.02
568.362	557.67
569.132	568.94
569.902	753.42
570.672	528.96
571.442	615.07
572.212	626.34
572.982	575.09
573.751	630.44
574.521	597.64
575.29	708.33
576.06	636.59
576.829	597.64
577.598	572.02
578.367	540.24
579.136	560.74
579.905	598.67
580.674	663.24
581.443	627.37
582.212	566.89
582.981	654.01
583.749	568.94
584.518	578.17
585.286	684.76
586.054	729.85
586.823	631.47
587.591	558.69
588.359	661.19
589.127	610.97
589.895	664.26
590.663	687.83
591.431	631.47
592.198	644.79
592.966	657.09
593.734	681.68
594.501	587.39
595.268	603.79
596.036	696.03
596.803	559.72
597.57	572.02
598.337	568.94
599.104	573.04
599.871	636.59
600.638	628.39
601.405	667.34
602.171	558.69
602.938	746.24
603.704	541.27
604.471	557.67
605.237	692.96
606.004	585.34
606.77	654.01
607.536	684.76
608.302	662.21
609.068	655.04
609.834	609.94
610.599	642.74
611.365	553.57
612.131	599.69
612.896	664.26
613.662	700.13
614.427	639.67
615.193	596.62
615.958	613.02
616.723	635.57
617.488	505.39
618.253	606.87
619.018	602.77
619.783	554.59
620.548	669.39
621.312	578.17
622.077	551.52
622.842	627.37
623.606	739.07
624.37	593.54
625.135	647.86
625.899	643.77
626.663	586.37
627.427	647.86
628.191	621.22
628.955	699.11
629.719	604.82
630.483	611.99
631.246	512.56
632.01	583.29
632.773	697.06
633.537	558.69
634.3	601.74
635.063	576.12
635.827	504.36
636.59	568.94
637.353	634.54
638.116	652.99
638.879	531.02
639.641	729.85
640.404	624.29
641.167	582.27
641.929	641.72
642.692	535.12
643.454	559.72
644.216	647.86
644.979	641.72
645.741	620.19
646.503	667.34
647.265	652.99
648.027	698.08
648.789	545.37
649.551	615.07
650.312	613.02
651.074	584.32
651.835	573.04
652.597	632.49
653.358	650.94
654.12	603.79
654.881	589.44
655.642	622.24
656.403	574.07
657.164	633.52
657.925	616.09
658.686	648.89
659.447	566.89
660.207	565.87
660.968	622.24
661.728	684.76
662.489	614.04
663.249	615.07
664.01	573.04
664.77	658.11
665.53	632.49
666.29	551.52
667.05	656.06
667.81	560.74
668.57	579.19
669.329	587.39
670.089	586.37
670.849	595.59
671.608	642.74
672.368	535.12
673.127	631.47
673.886	566.89
674.646	533.07
675.405	603.79
676.164	637.62
676.923	640.69
677.682	711.4
678.44	625.32
679.199	546.39
679.958	809.77
680.717	629.42
681.475	555.62
682.233	573.04
682.992	503.34
683.75	589.44
684.508	644.79
685.266	552.54
686.024	645.82
686.782	577.14
687.54	659.14
688.298	633.52
689.056	683.73
689.814	539.22
690.571	633.52
691.329	602.77
692.086	586.37
692.843	572.02
693.601	626.34
694.358	668.36
695.115	537.17
695.872	558.69
696.629	525.89
697.386	675.54
698.143	670.41
698.9	537.17
699.656	570.99
700.413	594.57
701.169	646.84
701.926	597.64
702.682	598.67
703.438	573.04
704.195	705.25
704.951	521.79
705.707	526.91
706.463	539.22
707.219	567.92
707.974	537.17
708.73	481.81
709.486	554.59
710.241	589.44
710.997	575.09
711.752	617.12
712.508	604.82
713.263	585.34
714.018	589.44
714.773	601.74
715.528	723.7
716.283	658.11
717.038	551.52
717.793	622.24
718.548	595.59
719.303	601.74
720.057	566.89
720.812	569.97
721.566	511.54
722.321	590.47
723.075	576.12
723.829	629.42
724.583	556.64
725.337	575.09
726.091	682.71
726.845	611.99
727.599	515.64
728.353	596.62
729.106	541.27
729.86	688.86
730.614	529.99
731.367	6298.89
732.12	584.32
732.874	548.44
733.627	596.62
734.38	627.37
735.133	626.34
735.886	568.94
736.639	572.02
737.392	614.04
738.145	555.62
738.897	675.54
739.65	615.07
740.403	624.29
741.155	615.07
741.907	617.12
742.66	695.01
743.412	503.34
744.164	634.54
744.916	528.96
745.668	591.49
746.42	703.21
747.172	608.92
747.924	603.79
748.676	520.76
749.427	579.19
750.179	624.29
750.93	651.96
751.682	546.39
752.433	636.59
753.184	700.13
753.935	558.69
754.687	539.22
755.438	624.29
756.189	594.57
756.939	555.62
757.69	539.22
758.441	639.67
759.192	594.57
759.942	659.14
760.693	654.01
761.443	602.77
762.194	554.59
762.944	550.49
763.694	640.69
764.444	561.77
765.194	630.44
765.944	623.27
766.694	635.57
767.444	667.34
768.194	647.86
768.943	543.32
769.693	637.62
770.443	632.49
771.192	656.06
771.941	493.08
772.691	631.47
773.44	603.79
774.189	660.16
774.938	604.82
775.687	576.12
776.436	624.29
777.185	645.82
777.934	550.49
778.683	617.12
779.431	581.24
780.18	655.04
780.928	595.59
781.677	593.54
782.425	627.37
783.173	647.86
783.922	647.86
784.67	720.63
785.418	674.51
786.166	705.25
786.914	551.52
787.661	624.29
788.409	610.97
789.157	594.57
789.904	600.72
790.652	665.29
791.399	643.77
792.147	630.44
792.894	652.99
793.641	602.77
794.388	5409.25
795.136	646.84
795.883	572.02
796.629	658.11
797.376	524.86
798.123	556.64
798.87	519.74
799.616	570.99
800.363	718.58
801.109	707.3
801.856	648.89
802.602	475.66
803.349	692.96
804.095	721.65
804.841	608.92
805.587	620.19
806.333	626.34
807.079	646.84
807.825	626.34
808.57	617.12
809.316	716.53
810.062	620.19
810.807	670.41
811.553	729.85
812.298	676.56
813.043	627.37
813.788	701.16
814.534	625.32
815.279	690.91
816.024	645.82
816.769	628.39
817.514	652.99
818.258	631.47
819.003	706.28
819.748	15634.7
820.492	631.47
821.237	4706.89
821.981	611.99
822.726	700.13
823.47	714.48
824.214	703.21
824.958	620.19
825.702	647.86
826.446	671.44
827.19	662.21
827.934	718.58
828.678	652.99
829.421	731.9
830.165	654.01
830.909	629.42
831.652	629.42
832.395	684.76
833.139	683.73
833.882	804.65
834.625	632.49
835.368	624.29
836.111	563.82
836.854	622.24
837.597	663.24
838.34	656.06
839.083	662.21
839.825	679.64
840.568	543.32
841.311	629.42
842.053	699.11
842.795	560.74
843.538	614.04
844.28	566.89
845.022	541.27
845.764	763.66
846.506	532.04
847.248	580.22
847.99	649.91
848.732	640.69
849.474	593.54
850.215	523.84
850.957	503.34
851.698	573.04
852.44	655.04
853.181	574.07
853.922	690.91
854.664	590.47
855.405	696.03
856.146	519.74
856.887	595.59
857.628	671.44
858.369	511.54
859.109	693.98
859.85	588.42
860.591	661.19
861.331	554.59
862.072	518.71
862.812	492.06
863.553	547.42
864.293	679.64
865.033	570.99
865.773	615.07
866.513	537.17
867.253	550.49
867.993	574.07
868.733	611.99
869.473	634.54
870.213	687.83
870.952	516.66
871.692	575.09
872.431	556.64
873.171	593.54
873.91	567.92
874.649	492.06
875.388	614.04
876.128	586.37
876.867	524.86
877.606	594.57
878.345	583.29
879.083	540.24
879.822	539.22
880.561	603.79
881.299	572.02
882.038	592.52
882.777	650.94
883.515	676.56
884.253	7901.97
884.992	608.92
885.73	585.34
886.468	595.59
887.206	714.48
887.944	643.77
888.682	645.82
889.42	607.89
890.157	618.14
890.895	552.54
891.633	1281.86
892.37	615.07
893.108	641.72
893.845	629.42
894.583	608.92
895.32	523.84
896.057	535.12
896.794	601.74
897.531	640.69
898.268	584.32
899.005	557.67
899.742	589.44
900.479	574.07
901.215	594.57
901.952	573.04
902.689	532.04
903.425	505.39
904.162	514.61
904.898	606.87
905.634	677.59
906.37	609.94
907.106	520.76
907.843	622.24
908.579	579.19
909.314	457.2
910.05	578.17
910.786	574.07
911.522	504.36
912.257	635.57
912.993	592.52
913.728	561.77
914.464	593.54
915.199	533.07
915.935	523.84
916.67	563.82
917.405	618.14
918.14	623.27
918.875	607.89
919.61	674.51
920.345	688.86
921.08	689.88
921.814	600.72
922.549	551.52
923.284	804.65
924.018	558.69
924.752	691.93
925.487	614.04
926.221	634.54
926.955	596.62
927.69	535.12
928.424	583.29
929.158	625.32
929.892	555.62
930.625	625.32
931.359	690.91
932.093	615.07
932.827	562.79
933.56	577.14
934.294	500.26
935.027	606.87
935.761	652.99
936.494	580.22
937.227	561.77
937.96	646.84
938.693	647.86
939.426	536.14
940.159	679.64
940.892	598.67
941.625	675.54
942.358	649.91
943.091	573.04
943.823	537.17
944.556	504.36
945.288	557.67
946.021	602.77
946.753	559.72
947.485	646.84
948.217	591.49
948.95	611.99
949.682	513.59
950.414	540.24
951.146	597.64
951.877	565.87
952.609	582.27
953.341	613.02
954.073	681.68
954.804	616.09
955.536	569.97
956.267	630.44
956.998	549.47
957.73	551.52
958.461	547.42
959.192	531.02
959.923	671.44
960.654	613.02
961.385	566.89
962.116	600.72
962.847	569.97
963.578	594.57
964.308	580.22
965.039	505.39
965.769	594.57
966.5	615.07
967.23	555.62
967.961	602.77
968.691	642.74
969.421	510.51
970.151	637.62
970.881	516.66
971.611	654.01
972.341	602.77
973.071	656.06
973.801	670.41
974.53	558.69
975.26	559.72
975.99	598.67
976.719	663.24
977.448	567.92
978.178	565.87
978.907	618.14
979.636	537.17
980.365	654.01
981.095	679.64
981.824	652.99
982.553	600.72
983.281	553.57
984.01	3.85
984.739	-23.86
985.468	-46.43
986.196	-81.33
986.925	831.29
987.653	591.49
988.382	698.08
989.11	620.19
989.838	633.52
990.566	723.7
991.295	577.14
992.023	680.66
992.751	680.66
993.478	572.02
994.206	637.62
994.934	597.64
995.662	-14.62
996.389	-50.54
997.117	138.25
997.845	74.64
