Data from White_QEPB07591_00001.txt Node
Date: Thu Aug 22 15:26:28 EDT 2019
User: wcc
Spectrometer: QEPB0759
Trigger mode: 0
Integration Time (sec): 1.749000E0
Scans to average: 1
Electric dark correction enabled: true
Nonlinearity correction enabled: true
Boxcar width: 0
XAxis mode: Wavelengths
Number of Pixels in Spectrum: 1044
>>>>>Begin Spectral Data<<<<<
197.938	631.21
198.749	619.94
199.559	566.64
200.369	564.59
201.179	583.04
201.988	572.79
202.798	700.9
203.608	573.81
204.417	570.74
205.227	549.21
206.036	632.24
206.846	625.06
207.655	668.11
208.464	632.24
209.273	642.48
210.082	561.51
210.891	567.66
211.7	583.04
212.508	579.96
213.317	549.21
214.125	516.41
214.934	557.41
215.742	558.44
216.55	552.29
217.359	526.66
218.167	558.44
218.975	645.56
219.782	541.01
220.59	539.98
221.398	523.58
222.206	709.1
223.013	607.64
223.82	530.76
224.628	550.24
225.435	575.86
226.242	638.38
227.049	619.94
227.856	554.34
228.663	608.66
229.47	586.11
230.277	589.19
231.083	569.71
231.89	564.59
232.696	614.81
233.502	564.59
234.309	555.36
235.115	614.81
235.921	606.61
236.727	526.66
237.533	641.46
238.339	614.81
239.144	605.59
239.95	727.54
240.756	607.64
241.561	604.56
242.366	553.31
243.172	621.99
243.977	675.28
244.782	625.06
245.587	620.96
246.392	643.51
247.197	523.58
248.001	532.81
248.806	571.76
249.611	549.21
250.415	601.49
251.219	588.16
252.024	620.96
252.828	553.31
253.632	552.29
254.436	549.21
255.24	647.61
256.044	660.93
256.848	585.09
257.651	541.01
258.455	590.21
259.258	593.29
260.062	50510.39
260.865	644.53
261.668	609.69
262.471	544.09
263.274	619.94
264.077	535.88
264.88	591.24
265.683	531.78
266.486	591.24
267.288	662.98
268.091	517.43
268.893	578.94
269.696	602.51
270.498	593.29
271.3	590.21
272.102	680.4
272.904	600.46
273.706	595.34
274.508	585.09
275.309	613.79
276.111	601.49
276.913	518.46
277.714	523.58
278.515	563.56
279.317	647.61
280.118	520.51
280.919	606.61
281.72	580.99
282.521	633.26
283.322	546.14
284.122	598.41
284.923	626.09
285.724	578.94
286.524	564.59
287.325	691.68
288.125	528.71
288.925	572.79
289.725	594.31
290.525	685.53
291.325	594.31
292.125	603.54
292.925	635.31
293.724	544.09
294.524	514.36
295.324	545.11
296.123	596.36
296.922	591.24
297.722	869.96
298.521	597.39
299.32	724.47
300.119	516.41
300.918	613.79
301.716	708.07
302.515	583.04
303.314	671.18
304.112	574.84
304.911	678.35
305.709	580.99
306.507	630.19
307.306	584.06
308.104	587.14
308.902	604.56
309.7	579.96
310.498	652.73
311.295	511.28
312.093	651.71
312.891	676.3
313.688	634.29
314.485	598.41
315.283	722.42
316.08	618.91
316.877	571.76
317.674	574.84
318.471	483.6
319.268	573.81
320.065	612.76
320.862	624.04
321.658	584.06
322.455	653.76
323.251	553.31
324.047	550.24
324.844	709.1
325.64	534.86
326.436	605.59
327.232	569.71
328.028	589.19
328.824	528.71
329.62	641.46
330.415	724.47
331.211	620.96
332.006	596.36
332.802	668.11
333.597	589.19
334.392	665.03
335.187	628.14
335.982	557.41
336.777	636.33
337.572	578.94
338.367	609.69
339.162	654.78
339.956	594.31
340.751	603.54
341.545	651.71
342.34	640.43
343.134	538.96
343.928	673.23
344.722	654.78
345.516	558.44
346.31	558.44
347.104	612.76
347.898	605.59
348.691	594.31
349.485	514.36
350.278	631.21
351.072	694.75
351.865	7216
352.658	626.09
353.452	675.28
354.245	568.69
355.038	634.29
355.83	598.41
356.623	573.81
357.416	566.64
358.209	591.24
359.001	572.79
359.794	621.99
360.586	628.14
361.378	656.83
362.17	574.84
362.963	555.36
363.755	696.8
364.546	504.11
365.338	623.01
366.13	621.99
366.922	615.84
367.713	594.31
368.505	584.06
369.296	576.89
370.088	488.73
370.879	549.21
371.67	604.56
372.461	543.06
373.252	602.51
374.043	680.4
374.834	479.5
375.625	623.01
376.415	660.93
377.206	616.86
377.996	574.84
378.787	698.85
379.577	524.61
380.367	511.28
381.157	616.86
381.947	584.06
382.737	623.01
383.527	636.33
384.317	698.85
385.107	591.24
385.896	669.13
386.686	628.14
387.475	652.73
388.265	597.39
389.054	858.69
389.843	600.46
390.632	614.81
391.421	637.36
392.21	695.78
392.999	566.64
393.788	671.18
394.576	669.13
395.365	667.08
396.154	636.33
396.942	613.79
397.73	645.56
398.519	672.21
399.307	685.53
400.095	675.28
400.883	753.16
401.671	661.96
402.459	699.87
403.246	645.56
404.034	678.35
404.822	668.11
405.609	750.09
406.396	775.7
407.184	619.94
407.971	729.59
408.758	740.86
409.545	584.06
410.332	761.36
411.119	776.73
411.906	650.68
412.693	747.01
413.479	768.53
414.266	697.83
415.052	773.65
415.839	762.38
416.625	723.44
417.411	825.91
418.197	843.32
418.983	885.33
419.769	811.56
420.555	763.41
421.341	773.65
422.127	775.7
422.912	749.06
423.698	840.25
424.483	752.14
425.269	749.06
426.054	695.78
426.839	817.71
427.624	771.6
428.409	798.24
429.194	806.44
429.979	857.67
430.764	844.35
431.549	847.42
432.333	828.98
433.118	753.16
433.902	875.08
434.687	821.81
435.471	866.89
436.255	872.01
437.039	852.54
437.823	868.93
438.607	856.64
439.391	865.86
440.175	873.03
440.958	862.79
441.742	873.03
442.526	822.83
443.309	903.76
444.092	960.1
444.876	914.01
445.659	909.91
446.442	1002.09
447.225	989.8
448.008	1010.29
448.791	1019.5
449.573	1153.64
450.356	1060.47
451.139	1030.77
451.921	967.27
452.704	1031.79
453.486	988.78
454.268	1063.54
455.05	1028.72
455.833	1014.38
456.615	1067.63
457.396	1057.39
458.178	1094.26
458.96	978.54
459.742	1068.66
460.523	1042.03
461.305	1056.37
462.086	1144.43
462.868	1217.12
463.649	1132.14
464.43	1074.8
465.211	1212
465.992	1108.59
466.773	1324.59
467.554	1228.38
468.335	1248.85
469.115	1245.78
469.896	1141.36
470.676	1068.66
471.457	1246.8
472.237	1259.09
473.018	1285.7
473.798	1224.28
474.578	1222.24
475.358	1159.79
476.138	1103.47
476.918	1109.62
477.697	1173.1
478.477	1283.65
479.257	1252.94
480.036	1234.52
480.816	1220.19
481.595	1331.76
482.374	1307.19
483.153	1367.58
483.932	1321.52
484.711	1291.84
485.49	1302.08
486.269	1270.35
487.048	1233.5
487.827	1372.69
488.605	1312.31
489.384	1338.92
490.162	1430
490.941	1527.19
491.719	1453.53
492.497	1487.3
493.275	1454.55
494.053	1494.46
494.831	1405.44
495.609	1445.35
496.387	1486.27
497.164	1484.23
497.942	1472.97
498.72	1450.46
499.497	1470.93
500.274	1387.02
501.052	1467.86
501.829	1536.4
502.606	1481.16
503.383	1529.24
504.16	1537.42
504.937	1546.63
505.714	1476.04
506.49	1612.1
507.267	1467.86
508.043	1560.95
508.82	1658.12
509.596	1522.08
510.373	1553.79
511.149	1546.63
511.925	1589.59
512.701	1631.53
513.477	1714.37
514.253	1664.26
515.029	1642.78
515.804	1657.1
516.58	1753.23
517.356	1680.62
518.131	1792.08
518.906	1655.05
519.682	1731.75
520.457	1715.39
521.232	1776.74
522.007	1766.52
522.782	1714.37
523.557	1702.1
524.332	1702.1
525.107	1849.33
525.881	1722.55
526.656	1692.89
527.43	1729.71
528.205	1776.74
528.979	1718.46
529.753	1768.56
530.527	1836.04
531.302	1740.96
532.076	1780.83
532.849	1751.18
533.623	1746.07
534.397	1695.96
535.171	1761.41
535.944	1823.77
536.718	1670.4
537.491	1872.85
538.265	1651.99
539.038	1766.52
539.811	1767.54
540.584	1743
541.357	1743
542.13	1860.58
542.903	1854.44
543.676	1766.52
544.449	1785.95
545.221	1790.04
545.994	1739.93
546.766	1764.47
547.539	1718.46
548.311	1792.08
549.083	1771.63
549.855	1622.33
550.627	1836.04
551.399	1792.08
552.171	1884.09
552.943	1839.11
553.715	1758.34
554.486	1811.51
555.258	1762.43
556.029	1784.92
556.801	1887.16
557.572	1791.06
558.343	1809.46
559.114	1930.09
559.886	1924.98
560.657	1878.98
561.427	1822.75
562.198	1864.67
562.969	1944.4
563.74	1882.05
564.51	1880
565.281	2024.11
566.051	1901.47
566.822	1900.45
567.592	1923.96
568.362	1904.53
569.132	1897.38
569.902	2085.42
570.672	1854.44
571.442	1924.98
572.212	1899.42
572.982	1878.98
573.751	1918.84
574.521	1893.29
575.29	1963.82
576.06	1900.45
576.829	1863.65
577.598	1835.02
578.367	1800.26
579.136	1819.69
579.905	1904.53
580.674	1930.09
581.443	1896.36
582.212	1837.07
582.981	1912.71
583.749	1836.04
584.518	1855.47
585.286	1938.26
586.054	1996.52
586.823	1897.38
587.591	1821.73
588.359	1911.69
589.127	1884.09
589.895	1954.62
590.663	1961.77
591.431	1891.25
592.198	1914.76
592.966	1922.93
593.734	1939.29
594.501	1858.53
595.268	1861.6
596.036	1955.64
596.803	1807.42
597.57	1816.62
598.337	1800.26
599.104	1812.53
599.871	1857.51
600.638	1850.36
601.405	1878.98
602.171	1765.5
602.938	1944.4
603.704	1724.6
604.471	1744.02
605.237	1866.71
606.004	1759.36
606.77	1821.73
607.536	1841.15
608.302	1820.71
609.068	1820.71
609.834	1755.27
610.599	1813.55
611.365	1711.3
612.131	1782.88
612.896	1820.71
613.662	1868.76
614.427	1802.3
615.193	1760.38
615.958	1774.7
616.723	1797.19
617.488	1657.1
618.253	1768.56
619.018	1740.96
619.783	1692.89
620.548	1822.75
621.312	1719.48
622.077	1678.58
622.842	1725.62
623.606	1868.76
624.37	1732.78
625.135	1753.23
625.899	1735.84
626.663	1685.74
627.427	1725.62
628.191	1700.05
628.955	1744.02
629.719	1640.74
630.483	1653.01
631.246	1561.98
632.01	1597.78
632.773	1696.98
633.537	1542.54
634.3	1578.34
635.063	1548.68
635.827	1464.79
636.59	1507.76
637.353	1592.66
638.116	1573.23
638.879	1431.02
639.641	1615.17
640.404	1519.01
641.167	1473.99
641.929	1527.19
642.692	1392.14
643.454	1403.39
644.216	1500.6
644.979	1494.46
645.741	1458.65
646.503	1504.69
647.265	1478.09
648.027	1528.22
648.789	1365.53
649.551	1422.83
650.312	1409.53
651.074	1354.27
651.835	1318.45
652.597	1383.95
653.358	1400.32
654.12	1356.32
654.881	1319.48
655.642	1353.25
656.403	1306.17
657.164	1362.46
657.925	1348.13
658.686	1378.83
659.447	1269.32
660.207	1282.63
660.968	1361.44
661.728	1421.81
662.489	1354.27
663.249	1345.06
664.01	1307.19
664.77	1399.3
665.53	1388.04
666.29	1308.22
667.05	1432.04
667.81	1338.92
668.57	1309.24
669.329	1335.85
670.089	1322.55
670.849	1362.46
671.608	1391.11
672.368	1308.22
673.127	1411.58
673.886	1323.57
674.646	1275.46
675.405	1347.11
676.164	1388.04
676.923	1361.44
677.682	1434.09
678.44	1355.3
679.199	1252.94
679.958	1539.47
680.717	1334.83
681.475	1287.75
682.233	1341.99
682.992	1257.04
683.75	1325.62
684.508	1348.13
685.266	1261.13
686.024	1323.57
686.782	1272.39
687.54	1315.38
688.298	1295.93
689.056	1321.52
689.814	1176.17
690.571	1254.99
691.329	1219.16
692.086	1187.43
692.843	1152.62
693.601	1204.83
694.358	1254.99
695.115	1098.35
695.872	1111.66
696.629	1073.78
697.386	1184.36
698.143	1195.62
698.9	1069.68
699.656	1073.78
700.413	1097.33
701.169	1165.93
701.926	1084.02
702.682	1095.28
703.438	1065.59
704.195	1187.43
704.951	1013.36
705.707	1000.04
706.463	1012.33
707.219	1042.03
707.974	1017.45
708.73	956
709.486	1027.7
710.241	1047.15
710.997	1051.25
711.752	1068.66
712.508	1068.66
713.263	1030.77
714.018	1051.25
714.773	1027.7
715.528	1129.07
716.283	1041.01
717.038	925.28
717.793	980.58
718.548	944.74
719.303	961.12
720.057	882.25
720.812	877.13
721.566	810.54
722.321	886.35
723.075	855.62
723.829	899.67
724.583	826.93
725.337	855.62
726.091	947.81
726.845	870.98
727.599	792.1
728.353	866.89
729.106	783.9
729.86	941.66
730.614	776.73
731.367	6417.06
732.12	831.03
732.874	790.05
733.627	839.23
734.38	870.98
735.133	826.93
735.886	772.63
736.639	774.68
737.392	814.64
738.145	743.94
738.897	854.59
739.65	806.44
740.403	806.44
741.155	814.64
741.907	814.64
742.66	852.54
743.412	651.71
744.164	769.55
744.916	619.94
745.668	681.43
746.42	763.41
747.172	643.51
747.924	605.59
748.676	531.78
749.427	577.91
750.179	635.31
750.93	651.71
751.682	521.53
752.433	640.43
753.184	692.7
753.935	576.89
754.687	544.09
755.438	619.94
756.189	600.46
756.939	561.51
757.69	536.91
758.441	634.29
759.192	589.19
759.942	658.88
760.693	652.73
761.443	625.06
762.194	554.34
762.944	541.01
763.694	644.53
764.444	563.56
765.194	636.33
765.944	614.81
766.694	655.81
767.444	667.08
768.194	642.48
768.943	544.09
769.693	653.76
770.443	609.69
771.192	659.91
771.941	487.7
772.691	627.11
773.44	580.99
774.189	637.36
774.938	620.96
775.687	568.69
776.436	611.74
777.185	642.48
777.934	560.49
778.683	611.74
779.431	592.26
780.18	646.58
780.928	598.41
781.677	601.49
782.425	640.43
783.173	660.93
783.922	643.51
784.67	711.15
785.418	668.11
786.166	706.02
786.914	555.36
787.661	626.09
788.409	613.79
789.157	599.44
789.904	602.51
790.652	689.63
791.399	651.71
792.147	629.16
792.894	655.81
793.641	607.64
794.388	5313.65
795.136	636.33
795.883	583.04
796.629	659.91
797.376	526.66
798.123	561.51
798.87	531.78
799.616	580.99
800.363	716.27
801.109	714.22
801.856	662.98
802.602	482.58
803.349	699.87
804.095	725.49
804.841	621.99
805.587	624.04
806.333	629.16
807.079	649.66
807.825	631.21
808.57	612.76
809.316	710.12
810.062	636.33
810.807	650.68
811.553	725.49
812.298	672.21
813.043	627.11
813.788	693.73
814.534	625.06
815.279	701.92
816.024	649.66
816.769	638.38
817.514	654.78
818.258	620.96
819.003	718.32
819.748	15295.65
820.492	612.76
821.237	4691.4
821.981	602.51
822.726	706.02
823.47	701.92
824.214	691.68
824.958	631.21
825.702	650.68
826.446	674.25
827.19	671.18
827.934	733.69
828.678	651.71
829.421	718.32
830.165	657.86
830.909	629.16
831.652	621.99
832.395	697.83
833.139	683.48
833.882	780.83
834.625	638.38
835.368	614.81
836.111	567.66
836.854	619.94
837.597	661.96
838.34	670.16
839.083	662.98
839.825	683.48
840.568	547.16
841.311	646.58
842.053	707.05
842.795	569.71
843.538	611.74
844.28	566.64
845.022	557.41
845.764	765.46
846.506	522.56
847.248	580.99
847.99	634.29
848.732	640.43
849.474	590.21
850.215	525.63
850.957	501.03
851.698	569.71
852.44	647.61
853.181	574.84
853.922	698.85
854.664	588.16
855.405	706.02
856.146	516.41
856.887	594.31
857.628	699.87
858.369	510.26
859.109	680.4
859.85	576.89
860.591	664.01
861.331	552.29
862.072	516.41
862.812	490.78
863.553	552.29
864.293	686.55
865.033	570.74
865.773	614.81
866.513	534.86
867.253	548.19
867.993	571.76
868.733	611.74
869.473	619.94
870.213	680.4
870.952	530.76
871.692	580.99
872.431	552.29
873.171	590.21
873.91	571.76
874.649	494.88
875.388	586.11
876.128	579.96
876.867	530.76
877.606	603.54
878.345	582.01
879.083	554.34
879.822	543.06
880.561	596.36
881.299	576.89
882.038	587.14
882.777	644.53
883.515	686.55
884.253	7981.45
884.992	609.69
885.73	595.34
886.468	591.24
887.206	736.77
887.944	637.36
888.682	651.71
889.42	608.66
890.157	618.91
890.895	555.36
891.633	1270.35
892.37	609.69
893.108	632.24
893.845	617.89
894.583	613.79
895.32	512.31
896.057	535.88
896.794	604.56
897.531	647.61
898.268	583.04
899.005	539.98
899.742	604.56
900.479	563.56
901.215	589.19
901.952	575.86
902.689	515.38
903.425	498.98
904.162	524.61
904.898	610.71
905.634	677.33
906.37	611.74
907.106	510.26
907.843	624.04
908.579	578.94
909.314	465.15
910.05	566.64
910.786	572.79
911.522	517.43
912.257	640.43
912.993	597.39
913.728	554.34
914.464	579.96
915.199	546.14
915.935	520.51
916.67	549.21
917.405	616.86
918.14	621.99
918.875	624.04
919.61	666.06
920.345	667.08
921.08	702.95
921.814	587.14
922.549	547.16
923.284	817.71
924.018	567.66
924.752	684.5
925.487	614.81
926.221	630.19
926.955	591.24
927.69	535.88
928.424	578.94
929.158	634.29
929.892	547.16
930.625	631.21
931.359	692.7
932.093	630.19
932.827	557.41
933.56	561.51
934.294	506.16
935.027	618.91
935.761	639.41
936.494	576.89
937.227	552.29
937.96	636.33
938.693	635.31
939.426	547.16
940.159	676.3
940.892	611.74
941.625	683.48
942.358	662.98
943.091	585.09
943.823	531.78
944.556	504.11
945.288	564.59
946.021	607.64
946.753	557.41
947.485	640.43
948.217	590.21
948.95	604.56
949.682	518.46
950.414	546.14
951.146	594.31
951.877	562.54
952.609	593.29
953.341	610.71
954.073	675.28
954.804	614.81
955.536	570.74
956.267	627.11
956.998	545.11
957.73	545.11
958.461	541.01
959.192	517.43
959.923	674.25
960.654	608.66
961.385	565.61
962.116	582.01
962.847	556.39
963.578	588.16
964.308	591.24
965.039	506.16
965.769	597.39
966.5	618.91
967.23	562.54
967.961	594.31
968.691	634.29
969.421	508.21
970.151	636.33
970.881	521.53
971.611	666.06
972.341	600.46
973.071	659.91
973.801	671.18
974.53	546.14
975.26	564.59
975.99	599.44
976.719	648.63
977.448	566.64
978.178	576.89
978.907	628.14
979.636	532.81
980.365	645.56
981.095	676.3
981.824	635.31
982.553	592.26
983.281	545.11
984.01	3.59
984.739	-29.24
985.468	-45.66
986.196	-79.53
986.925	825.91
987.653	579.96
988.382	676.3
989.11	620.96
989.838	642.48
990.566	729.59
991.295	583.04
992.023	667.08
992.751	689.63
993.478	593.29
994.206	633.26
994.934	595.34
995.662	-14.88
996.389	-47.72
997.117	126.71
997.845	86.7
