Data from White_QEPB07591_00002.txt Node
Date: Thu Aug 22 15:26:29 EDT 2019
User: wcc
Spectrometer: QEPB0759
Trigger mode: 0
Integration Time (sec): 1.749000E0
Scans to average: 1
Electric dark correction enabled: true
Nonlinearity correction enabled: true
Boxcar width: 0
XAxis mode: Wavelengths
Number of Pixels in Spectrum: 1044
>>>>>Begin Spectral Data<<<<<
197.938	623.52
198.749	612.25
199.559	567.15
200.369	561
201.179	600.97
201.988	591.75
202.798	702.44
203.608	564.07
204.417	599.95
205.227	547.67
206.036	622.5
206.846	624.55
207.655	664.52
208.464	631.72
209.273	664.52
210.082	554.85
210.891	574.32
211.7	591.75
212.508	579.45
213.317	550.75
214.125	526.15
214.934	558.95
215.742	580.47
216.55	554.85
217.359	539.47
218.167	564.07
218.975	654.27
219.782	549.72
220.59	534.35
221.398	529.22
222.206	713.71
223.013	608.15
223.82	530.25
224.628	565.1
225.435	583.55
226.242	625.57
227.049	624.55
227.856	545.62
228.663	614.3
229.47	585.6
230.277	588.67
231.083	575.35
231.89	559.97
232.696	633.77
233.502	573.3
234.309	552.8
235.115	638.9
235.921	591.75
236.727	521.02
237.533	651.2
238.339	630.7
239.144	620.45
239.95	752.65
240.756	603.02
241.561	603.02
242.366	563.05
243.172	614.3
243.977	674.77
244.782	622.5
245.587	635.82
246.392	646.07
247.197	530.25
248.001	544.6
248.806	575.35
249.611	572.27
250.415	597.9
251.219	593.8
252.024	602
252.828	558.95
253.632	556.9
254.436	548.7
255.24	643
256.044	648.12
256.848	583.55
257.651	543.57
258.455	598.92
259.258	600.97
260.062	50515.94
260.865	640.95
261.668	628.65
262.471	559.97
263.274	632.75
264.077	547.67
264.88	595.85
265.683	543.57
266.486	592.77
267.288	656.32
268.091	527.17
268.893	592.77
269.696	623.52
270.498	584.57
271.3	593.8
272.102	667.59
272.904	598.92
273.706	589.7
274.508	586.62
275.309	614.3
276.111	606.1
276.913	534.35
277.714	514.87
278.515	552.8
279.317	661.44
280.118	533.32
280.919	597.9
281.72	584.57
282.521	630.7
283.322	564.07
284.122	608.15
284.923	633.77
285.724	571.25
286.524	573.3
287.325	683.99
288.125	536.4
288.925	572.27
289.725	597.9
290.525	696.29
291.325	599.95
292.125	600.97
292.925	634.8
293.724	530.25
294.524	528.2
295.324	546.65
296.123	598.92
296.922	589.7
297.722	874.57
298.521	596.87
299.32	720.88
300.119	517.94
300.918	611.22
301.716	705.51
302.515	588.67
303.314	660.42
304.112	577.4
304.911	689.11
305.709	563.05
306.507	643
307.306	588.67
308.104	587.65
308.902	616.35
309.7	604.05
310.498	654.27
311.295	516.92
312.093	634.8
312.891	689.11
313.688	635.82
314.485	593.8
315.283	735.23
316.08	628.65
316.877	580.47
317.674	597.9
318.471	493.34
319.268	558.95
320.065	621.47
320.862	631.72
321.658	593.8
322.455	660.42
323.251	550.75
324.047	551.77
324.844	709.61
325.64	543.57
326.436	609.17
327.232	581.5
328.028	607.12
328.824	540.5
329.62	647.1
330.415	730.1
331.211	619.42
332.006	612.25
332.802	659.39
333.597	582.52
334.392	652.22
335.187	618.4
335.982	552.8
336.777	644.02
337.572	594.82
338.367	630.7
339.162	663.49
339.956	590.72
340.751	622.5
341.545	645.05
342.34	656.32
343.134	539.47
343.928	672.72
344.722	687.07
345.516	558.95
346.31	566.12
347.104	602
347.898	614.3
348.691	593.8
349.485	514.87
350.278	634.8
351.072	701.41
351.865	7175.07
352.658	619.42
353.452	687.07
354.245	572.27
355.038	638.9
355.83	596.87
356.623	563.05
357.416	565.1
358.209	584.57
359.001	568.17
359.794	602
360.586	635.82
361.378	648.12
362.17	585.6
362.963	547.67
363.755	687.07
364.546	529.22
365.338	631.72
366.13	640.95
366.922	617.37
367.713	584.57
368.505	590.72
369.296	578.42
370.088	493.34
370.879	551.77
371.67	597.9
372.461	550.75
373.252	595.85
374.043	683.99
374.834	491.29
375.625	630.7
376.415	653.25
377.206	620.45
377.996	587.65
378.787	708.59
379.577	524.1
380.367	492.32
381.157	616.35
381.947	576.37
382.737	615.32
383.527	624.55
384.317	702.44
385.107	594.82
385.896	670.67
386.686	625.57
387.475	651.2
388.265	604.05
389.054	862.28
389.843	608.15
390.632	617.37
391.421	645.05
392.21	699.36
392.999	584.57
393.788	650.17
394.576	665.54
395.365	643
396.154	637.87
396.942	616.35
397.73	661.44
398.519	678.87
399.307	680.92
400.095	663.49
400.883	762.89
401.671	675.79
402.459	710.63
403.246	635.82
404.034	667.59
404.822	666.57
405.609	765.97
406.396	775.19
407.184	624.55
407.971	748.55
408.758	747.52
409.545	576.37
410.332	776.21
411.119	764.94
411.906	650.17
412.693	755.72
413.479	783.39
414.266	716.78
415.052	787.49
415.839	769.04
416.625	722.93
417.411	806.95
418.197	847.93
418.983	874.57
419.769	831.54
420.555	771.09
421.341	783.39
422.127	785.44
422.912	761.87
423.698	860.23
424.483	759.82
425.269	753.67
426.054	704.49
426.839	807.98
427.624	773.14
428.409	794.66
429.194	805.93
429.979	856.13
430.764	848.96
431.549	852.03
432.333	830.52
433.118	763.92
433.902	874.57
434.687	825.39
435.471	870.47
436.255	883.79
437.039	852.03
437.823	870.47
438.607	860.23
439.391	880.72
440.175	884.81
440.958	857.15
441.742	879.69
442.526	822.32
443.309	894.03
444.092	980.07
444.876	906.32
445.659	893.01
446.442	991.34
447.225	989.29
448.008	1027.18
448.791	1026.16
449.573	1140.85
450.356	1065.07
451.139	1046.64
451.921	940.13
452.704	1030.26
453.486	996.46
454.268	1056.88
455.05	1031.28
455.833	993.39
456.615	1069.17
457.396	1046.64
458.178	1089.65
458.96	997.48
459.742	1050.74
460.523	1040.5
461.305	1059.95
462.086	1140.85
462.868	1234.01
463.649	1109.1
464.43	1083.51
465.211	1224.79
465.992	1120.37
466.773	1330.22
467.554	1225.82
468.335	1255.5
469.115	1249.36
469.896	1130.61
470.676	1083.51
471.457	1232.98
472.237	1265.74
473.018	1286.21
473.798	1222.75
474.578	1224.79
475.358	1178.73
476.138	1112.18
476.918	1105.01
477.697	1176.68
478.477	1297.47
479.257	1250.39
480.036	1235.03
480.816	1229.91
481.595	1341.48
482.374	1294.4
483.153	1372.18
483.932	1333.29
484.711	1298.49
485.49	1297.47
486.269	1259.6
487.048	1239.13
487.827	1382.41
488.605	1318.96
489.384	1327.15
490.162	1425.39
490.941	1538.96
491.719	1443.81
492.497	1480.64
493.275	1458.14
494.053	1492.92
494.831	1415.16
495.609	1470.41
496.387	1470.41
497.164	1474.51
497.942	1469.39
498.72	1448.93
499.497	1475.53
500.274	1382.41
501.052	1469.39
501.829	1530.78
502.606	1483.71
503.383	1522.59
504.16	1562.49
504.937	1553.28
505.714	1468.37
506.49	1611.59
507.267	1476.55
508.043	1568.63
508.82	1647.38
509.596	1523.61
510.373	1531.8
511.149	1539.98
511.925	1588.06
512.701	1632.04
513.477	1686.25
514.253	1646.36
515.029	1642.27
515.804	1647.38
516.58	1743.51
517.356	1666.82
518.131	1817.13
518.906	1650.45
519.682	1735.33
520.457	1711.81
521.232	1761.92
522.007	1766.01
522.782	1714.88
523.557	1707.72
524.332	1713.86
525.107	1866.2
525.881	1712.84
526.656	1698.52
527.43	1731.24
528.205	1763.96
528.979	1731.24
529.753	1762.94
530.527	1839.62
531.302	1725.11
532.076	1788.5
532.849	1741.47
533.623	1747.6
534.397	1707.72
535.171	1739.42
535.944	1827.35
536.718	1680.11
537.491	1862.11
538.265	1656.59
539.038	1768.05
539.811	1752.72
540.584	1756.81
541.357	1740.45
542.13	1841.67
542.903	1875.4
543.676	1746.58
544.449	1762.94
545.221	1785.43
545.994	1723.06
546.766	1779.3
547.539	1740.45
548.311	1798.73
549.083	1760.9
549.855	1617.72
550.627	1835.53
551.399	1793.61
552.171	1904.02
552.943	1845.76
553.715	1777.26
554.486	1800.77
555.258	1775.21
556.029	1779.3
556.801	1884.6
557.572	1787.48
558.343	1837.58
559.114	1929.58
559.886	1935.71
560.657	1904.02
561.427	1827.35
562.198	1866.2
562.969	1938.78
563.74	1924.47
564.51	1896.87
565.281	2008.27
566.051	1888.69
566.822	1883.58
567.592	1925.49
568.362	1915.27
569.132	1895.85
569.902	2071.63
570.672	1846.78
571.442	1944.91
572.212	1931.62
572.982	1870.29
573.751	1916.29
574.521	1881.53
575.29	1986.81
576.06	1894.82
576.829	1854.96
577.598	1845.76
578.367	1794.64
579.136	1818.15
579.905	1889.71
580.674	1927.53
581.443	1904.02
582.212	1834.51
582.981	1917.31
583.749	1828.38
584.518	1841.67
585.286	1935.71
586.054	1988.86
586.823	1903
587.591	1807.93
588.359	1920.38
589.127	1877.45
589.895	1976.59
590.663	1963.31
591.431	1926.51
592.198	1917.31
592.966	1918.33
593.734	1946.95
594.501	1835.53
595.268	1855.98
596.036	1966.37
596.803	1820.2
597.57	1802.82
598.337	1814.06
599.104	1795.66
599.871	1838.6
600.638	1846.78
601.405	1885.62
602.171	1748.63
602.938	1920.38
603.704	1708.75
604.471	1750.67
605.237	1854.96
606.004	1744.54
606.77	1820.2
607.536	1848.82
608.302	1827.35
609.068	1821.22
609.834	1770.1
610.599	1808.95
611.365	1726.13
612.131	1766.01
612.896	1819.17
613.662	1851.89
614.427	1807.93
615.193	1766.01
615.958	1757.83
616.723	1783.39
617.488	1659.66
618.253	1767.03
619.018	1768.05
619.783	1725.11
620.548	1807.93
621.312	1734.31
622.077	1677.04
622.842	1742.49
623.606	1860.07
624.37	1713.86
625.135	1749.65
625.899	1736.35
626.663	1673.97
627.427	1723.06
628.191	1704.65
628.955	1748.63
629.719	1657.61
630.483	1639.2
631.246	1545.1
632.01	1594.2
632.773	1675
633.537	1558.4
634.3	1588.06
635.063	1536.91
635.827	1465.3
636.59	1517.48
637.353	1580.9
638.116	1581.92
638.879	1415.16
639.641	1605.45
640.404	1520.55
641.167	1463.25
641.929	1527.71
642.692	1393.67
643.454	1401.86
644.216	1489.85
644.979	1472.46
645.741	1454.04
646.503	1500.08
647.265	1474.51
648.027	1523.61
648.789	1374.23
649.551	1419.25
650.312	1393.67
651.074	1356.83
651.835	1351.71
652.597	1363.99
653.358	1400.83
654.12	1362.97
654.881	1334.32
655.642	1345.57
656.403	1313.85
657.164	1377.3
657.925	1336.36
658.686	1368.09
659.447	1271.88
660.207	1282.12
660.968	1365.02
661.728	1399.81
662.489	1337.39
663.249	1359.9
664.01	1301.56
664.77	1394.69
665.53	1415.16
666.29	1308.73
667.05	1400.83
667.81	1323.06
668.57	1327.15
669.329	1328.17
670.089	1315.89
670.849	1367.06
671.608	1401.86
672.368	1287.23
673.127	1411.07
673.886	1323.06
674.646	1269.83
675.405	1346.6
676.164	1379.34
676.923	1382.41
677.682	1436.65
678.44	1347.62
679.199	1278.02
679.958	1526.68
680.717	1341.48
681.475	1284.16
682.233	1310.78
682.992	1261.65
683.75	1325.1
684.508	1356.83
685.266	1247.31
686.024	1334.32
686.782	1260.62
687.54	1312.82
688.298	1288.26
689.056	1325.1
689.814	1177.7
690.571	1257.55
691.329	1234.01
692.086	1180.77
692.843	1164.39
693.601	1216.6
694.358	1239.13
695.115	1116.27
695.872	1114.22
696.629	1075.31
697.386	1201.25
698.143	1217.63
698.9	1064.05
699.656	1068.15
700.413	1099.89
701.169	1148.01
701.926	1089.65
702.682	1103.99
703.438	1056.88
704.195	1191.01
704.951	1025.14
705.707	1008.75
706.463	1011.82
707.219	1035.38
707.974	1001.58
708.73	959.59
709.486	1015.92
710.241	1035.38
710.997	1040.5
711.752	1070.19
712.508	1048.69
713.263	1026.16
714.018	1015.92
714.773	1033.33
715.528	1131.63
716.283	1033.33
717.038	935.01
717.793	975.98
718.548	948.32
719.303	960.61
720.057	894.03
720.812	876.62
721.566	819.25
722.321	880.72
723.075	864.32
723.829	901.2
724.583	840.76
725.337	862.28
726.091	943.2
726.845	890.96
727.599	778.26
728.353	861.25
729.106	792.61
729.86	921.69
730.614	787.49
731.367	6556.21
732.12	840.76
732.874	793.63
733.627	843.84
734.38	861.25
735.133	826.42
735.886	780.31
736.639	768.02
737.392	813.1
738.145	749.57
738.897	867.4
739.65	790.56
740.403	817.2
741.155	818.22
741.907	818.22
742.66	852.03
743.412	661.44
744.164	765.97
744.916	628.65
745.668	676.82
746.42	758.8
747.172	651.2
747.924	632.75
748.676	540.5
749.427	583.55
750.179	630.7
750.93	664.52
751.682	525.12
752.433	650.17
753.184	695.26
753.935	567.15
754.687	538.45
755.438	634.8
756.189	595.85
756.939	571.25
757.69	549.72
758.441	635.82
759.192	604.05
759.942	663.49
760.693	643
761.443	626.6
762.194	561
762.944	542.55
763.694	645.05
764.444	574.32
765.194	628.65
765.944	621.47
766.694	664.52
767.444	675.79
768.194	654.27
768.943	566.12
769.693	657.34
770.443	634.8
771.192	649.15
771.941	506.67
772.691	636.85
773.44	608.15
774.189	659.39
774.938	596.87
775.687	573.3
776.436	633.77
777.185	637.87
777.934	559.97
778.683	599.95
779.431	587.65
780.18	650.17
780.928	588.67
781.677	593.8
782.425	623.52
783.173	671.69
783.922	637.87
784.67	718.83
785.418	668.62
786.166	700.39
786.914	563.05
787.661	608.15
788.409	608.15
789.157	598.92
789.904	600.97
790.652	666.57
791.399	657.34
792.147	622.5
792.894	680.92
793.641	603.02
794.388	5236.04
795.136	644.02
795.883	562.02
796.629	665.54
797.376	524.1
798.123	552.8
798.87	531.27
799.616	570.22
800.363	727.03
801.109	716.78
801.856	662.47
802.602	489.24
803.349	692.19
804.095	742.4
804.841	608.15
805.587	616.35
806.333	630.7
807.079	653.25
807.825	635.82
808.57	617.37
809.316	716.78
810.062	635.82
810.807	661.44
811.553	737.28
812.298	666.57
813.043	634.8
813.788	690.14
814.534	609.17
815.279	708.59
816.024	656.32
816.769	627.62
817.514	645.05
818.258	630.7
819.003	716.78
819.748	15314.15
820.492	624.55
821.237	4730.51
821.981	600.97
822.726	697.31
823.47	694.24
824.214	694.24
824.958	627.62
825.702	640.95
826.446	671.69
827.19	674.77
827.934	732.15
828.678	672.72
829.421	721.91
830.165	665.54
830.909	633.77
831.652	613.27
832.395	695.26
833.139	691.16
833.882	779.29
834.625	629.67
835.368	626.6
836.111	547.67
836.854	606.1
837.597	652.22
838.34	670.67
839.083	648.12
839.825	689.11
840.568	561
841.311	633.77
842.053	717.81
842.795	571.25
843.538	608.15
844.28	555.87
845.022	542.55
845.764	770.07
846.506	538.45
847.248	589.7
847.99	645.05
848.732	648.12
849.474	597.9
850.215	524.1
850.957	508.72
851.698	557.92
852.44	652.22
853.181	590.72
853.922	685.02
854.664	599.95
855.405	708.59
856.146	533.32
856.887	606.1
857.628	695.26
858.369	514.87
859.109	687.07
859.85	583.55
860.591	690.14
861.331	550.75
862.072	521.02
862.812	493.34
863.553	540.5
864.293	682.97
865.033	579.45
865.773	622.5
866.513	523.07
867.253	551.77
867.993	570.22
868.733	610.2
869.473	631.72
870.213	686.04
870.952	534.35
871.692	592.77
872.431	546.65
873.171	599.95
873.91	562.02
874.649	497.44
875.388	620.45
876.128	580.47
876.867	520
877.606	593.8
878.345	574.32
879.083	545.62
879.822	541.52
880.561	605.07
881.299	575.35
882.038	575.35
882.777	648.12
883.515	683.99
884.253	7955.71
884.992	606.1
885.73	580.47
886.468	602
887.206	724.98
887.944	653.25
888.682	656.32
889.42	603.02
890.157	619.42
890.895	545.62
891.633	1278.02
892.37	610.2
893.108	614.3
893.845	611.22
894.583	620.45
895.32	532.3
896.057	532.3
896.794	600.97
897.531	640.95
898.268	577.4
899.005	536.4
899.742	606.1
900.479	559.97
901.215	607.12
901.952	574.32
902.689	523.07
903.425	512.82
904.162	511.79
904.898	611.22
905.634	675.79
906.37	618.4
907.106	529.22
907.843	632.75
908.579	579.45
909.314	471.81
910.05	580.47
910.786	583.55
911.522	517.94
912.257	638.9
912.993	600.97
913.728	565.1
914.464	580.47
915.199	550.75
915.935	513.84
916.67	548.7
917.405	608.15
918.14	625.57
918.875	616.35
919.61	671.69
920.345	679.89
921.08	692.19
921.814	602
922.549	540.5
923.284	812.08
924.018	562.02
924.752	681.94
925.487	602
926.221	618.4
926.955	582.52
927.69	542.55
928.424	596.87
929.158	637.87
929.892	558.95
930.625	625.57
931.359	700.39
932.093	636.85
932.827	549.72
933.56	576.37
934.294	504.62
935.027	597.9
935.761	668.62
936.494	577.4
937.227	556.9
937.96	639.92
938.693	635.82
939.426	538.45
940.159	686.04
940.892	604.05
941.625	679.89
942.358	657.34
943.091	577.4
943.823	535.37
944.556	511.79
945.288	557.92
946.021	611.22
946.753	566.12
947.485	649.15
948.217	581.5
948.95	610.2
949.682	533.32
950.414	538.45
951.146	597.9
951.877	561
952.609	604.05
953.341	622.5
954.073	683.99
954.804	626.6
955.536	573.3
956.267	634.8
956.998	563.05
957.73	555.87
958.461	540.5
959.192	536.4
959.923	665.54
960.654	604.05
961.385	572.27
962.116	599.95
962.847	577.4
963.578	599.95
964.308	592.77
965.039	520
965.769	615.32
966.5	623.52
967.23	565.1
967.961	602
968.691	639.92
969.421	530.25
970.151	648.12
970.881	521.02
971.611	655.3
972.341	588.67
973.071	640.95
973.801	678.87
974.53	566.12
975.26	569.2
975.99	598.92
976.719	646.07
977.448	576.37
978.178	558.95
978.907	617.37
979.636	532.3
980.365	652.22
981.095	669.64
981.824	639.92
982.553	591.75
983.281	564.07
984.01	4.1
984.739	-25.65
985.468	-40.02
986.196	-77.99
986.925	825.39
987.653	599.95
988.382	700.39
989.11	629.67
989.838	643
990.566	718.83
991.295	582.52
992.023	687.07
992.751	690.14
993.478	576.37
994.206	638.9
994.934	596.87
995.662	-14.37
996.389	-53.36
997.117	128.25
997.845	79.01
