Data from White_Bg_QEPB07591_00003.txt Node
Date: Thu Aug 22 15:27:22 EDT 2019
User: wcc
Spectrometer: QEPB0759
Trigger mode: 0
Integration Time (sec): 1.749000E0
Scans to average: 1
Electric dark correction enabled: true
Nonlinearity correction enabled: true
Boxcar width: 0
XAxis mode: Wavelengths
Number of Pixels in Spectrum: 1044
>>>>>Begin Spectral Data<<<<<
197.938	632.75
198.749	598.92
199.559	580.47
200.369	561
201.179	606.1
201.988	589.7
202.798	690.14
203.608	566.12
204.417	583.55
205.227	557.92
206.036	625.57
206.846	630.7
207.655	663.49
208.464	615.32
209.273	658.37
210.082	564.07
210.891	569.2
211.7	581.5
212.508	571.25
213.317	541.52
214.125	534.35
214.934	562.02
215.742	581.5
216.55	562.02
217.359	528.2
218.167	563.05
218.975	636.85
219.782	544.6
220.59	554.85
221.398	538.45
222.206	719.86
223.013	596.87
223.82	530.25
224.628	559.97
225.435	579.45
226.242	631.72
227.049	622.5
227.856	569.2
228.663	609.17
229.47	583.55
230.277	603.02
231.083	580.47
231.89	551.77
232.696	616.35
233.502	583.55
234.309	559.97
235.115	613.27
235.921	585.6
236.727	523.07
237.533	656.32
238.339	627.62
239.144	617.37
239.95	740.35
240.756	612.25
241.561	603.02
242.366	556.9
243.172	620.45
243.977	689.11
244.782	611.22
245.587	620.45
246.392	634.8
247.197	527.17
248.001	535.37
248.806	566.12
249.611	553.82
250.415	604.05
251.219	585.6
252.024	606.1
252.828	563.05
253.632	567.15
254.436	549.72
255.24	654.27
256.044	661.44
256.848	587.65
257.651	535.37
258.455	607.12
259.258	614.3
260.062	50444.34
260.865	641.97
261.668	617.37
262.471	558.95
263.274	636.85
264.077	556.9
264.88	590.72
265.683	544.6
266.486	586.62
267.288	662.47
268.091	524.1
268.893	578.42
269.696	604.05
270.498	596.87
271.3	597.9
272.102	675.79
272.904	595.85
273.706	593.8
274.508	596.87
275.309	633.77
276.111	616.35
276.913	527.17
277.714	504.62
278.515	557.92
279.317	664.52
280.118	524.1
280.919	602
281.72	583.55
282.521	611.22
283.322	564.07
284.122	618.4
284.923	637.87
285.724	577.4
286.524	590.72
287.325	682.97
288.125	539.47
288.925	574.32
289.725	583.55
290.525	692.19
291.325	600.97
292.125	615.32
292.925	640.95
293.724	538.45
294.524	517.94
295.324	542.55
296.123	592.77
296.922	582.52
297.722	865.35
298.521	608.15
299.32	715.76
300.119	520
300.918	605.07
301.716	718.83
302.515	582.52
303.314	665.54
304.112	574.32
304.911	699.36
305.709	585.6
306.507	640.95
307.306	592.77
308.104	581.5
308.902	604.05
309.7	596.87
310.498	657.34
311.295	508.72
312.093	633.77
312.891	690.14
313.688	638.9
314.485	596.87
315.283	718.83
316.08	622.5
316.877	581.5
317.674	585.6
318.471	496.42
319.268	567.15
320.065	622.5
320.862	629.67
321.658	596.87
322.455	656.32
323.251	548.7
324.047	554.85
324.844	706.54
325.64	531.27
326.436	602
327.232	585.6
328.028	591.75
328.824	536.4
329.62	646.07
330.415	737.28
331.211	612.25
332.006	593.8
332.802	657.34
333.597	579.45
334.392	655.3
335.187	628.65
335.982	566.12
336.777	635.82
337.572	595.85
338.367	623.52
339.162	658.37
339.956	594.82
340.751	622.5
341.545	640.95
342.34	664.52
343.134	536.4
343.928	666.57
344.722	658.37
345.516	566.12
346.31	557.92
347.104	597.9
347.898	596.87
348.691	589.7
349.485	520
350.278	629.67
351.072	704.49
351.865	7213.47
352.658	610.2
353.452	694.24
354.245	579.45
355.038	635.82
355.83	590.72
356.623	577.4
357.416	563.05
358.209	588.67
359.001	556.9
359.794	618.4
360.586	635.82
361.378	664.52
362.17	581.5
362.963	549.72
363.755	705.51
364.546	509.74
365.338	628.65
366.13	650.17
366.922	613.27
367.713	582.52
368.505	600.97
369.296	577.4
370.088	498.47
370.879	545.62
371.67	608.15
372.461	551.77
373.252	600.97
374.043	692.19
374.834	484.11
375.625	631.72
376.415	670.67
377.206	609.17
377.996	581.5
378.787	724.98
379.577	532.3
380.367	499.49
381.157	620.45
381.947	578.42
382.737	614.3
383.527	645.05
384.317	682.97
385.107	577.4
385.896	655.3
386.686	624.55
387.475	633.77
388.265	582.52
389.054	823.35
389.843	575.35
390.632	593.8
391.421	620.45
392.21	668.62
392.999	546.65
393.788	614.3
394.576	634.8
395.365	605.07
396.154	594.82
396.942	564.07
397.73	607.12
398.519	610.2
399.307	632.75
400.095	590.72
400.883	696.29
401.671	598.92
402.459	624.55
403.246	545.62
404.034	577.4
404.822	574.32
405.609	662.47
406.396	679.89
407.184	531.27
407.971	634.8
408.758	635.82
409.545	463.61
410.332	654.27
411.119	661.44
411.906	535.37
412.693	631.72
413.479	655.3
414.266	565.1
415.052	638.9
415.839	597.9
416.625	568.17
417.411	645.05
418.197	661.44
418.983	692.19
419.769	657.34
420.555	580.47
421.341	598.92
422.127	610.2
422.912	578.42
423.698	673.74
424.483	568.17
425.269	551.77
426.054	496.42
426.839	625.57
427.624	555.87
428.409	577.4
429.194	580.47
429.979	626.6
430.764	616.35
431.549	610.2
432.333	596.87
433.118	500.52
433.902	624.55
434.687	573.3
435.471	607.12
436.255	619.42
437.039	579.45
437.823	597.9
438.607	591.75
439.391	606.1
440.175	618.4
440.958	569.2
441.742	604.05
442.526	533.32
443.309	612.25
444.092	673.74
444.876	596.87
445.659	587.65
446.442	680.92
447.225	647.1
448.008	659.39
448.791	650.17
449.573	741.38
450.356	676.82
451.139	655.3
451.921	569.2
452.704	638.9
453.486	597.9
454.268	638.9
455.05	626.6
455.833	588.67
456.615	629.67
457.396	599.95
458.178	622.5
458.96	534.35
459.742	603.02
460.523	578.42
461.305	572.27
462.086	615.32
462.868	713.71
463.649	612.25
464.43	562.02
465.211	712.68
465.992	556.9
466.773	728.06
467.554	592.77
468.335	619.42
469.115	610.2
469.896	531.27
470.676	488.21
471.457	629.67
472.237	620.45
473.018	618.4
473.798	586.62
474.578	637.87
475.358	594.82
476.138	533.32
476.918	543.57
477.697	572.27
478.477	689.11
479.257	616.35
480.036	551.77
480.816	524.1
481.595	608.15
482.374	597.9
483.153	667.59
483.932	605.07
484.711	592.77
485.49	622.5
486.269	562.02
487.048	516.92
487.827	653.25
488.605	578.42
489.384	562.02
490.162	613.27
490.941	679.89
491.719	572.27
492.497	591.75
493.275	556.9
494.053	620.45
494.831	574.32
495.609	605.07
496.387	626.6
497.164	620.45
497.942	604.05
498.72	577.4
499.497	595.85
500.274	508.72
501.052	593.8
501.829	640.95
502.606	543.57
503.383	605.07
504.16	634.8
504.937	615.32
505.714	542.55
506.49	676.82
507.267	530.25
508.043	615.32
508.82	673.74
509.596	533.32
510.373	580.47
511.149	532.3
511.925	566.12
512.701	606.1
513.477	660.42
514.253	598.92
515.029	575.35
515.804	582.52
516.58	688.09
517.356	585.6
518.131	685.02
518.906	550.75
519.682	615.32
520.457	590.72
521.232	623.52
522.007	613.27
522.782	541.52
523.557	550.75
524.332	532.3
525.107	665.54
525.881	556.9
526.656	521.02
527.43	552.8
528.205	574.32
528.979	540.5
529.753	574.32
530.527	646.07
531.302	559.97
532.076	597.9
532.849	576.37
533.623	576.37
534.397	535.37
535.171	591.75
535.944	640.95
536.718	520
537.491	709.61
538.265	497.44
539.038	608.15
539.811	629.67
540.584	585.6
541.357	576.37
542.13	694.24
542.903	692.19
543.676	597.9
544.449	604.05
545.221	624.55
545.994	569.2
546.766	602
547.539	544.6
548.311	636.85
549.083	591.75
549.855	455.41
550.627	653.25
551.399	598.92
552.171	692.19
552.943	633.77
553.715	541.52
554.486	598.92
555.258	532.3
556.029	532.3
556.801	617.37
557.572	529.22
558.343	564.07
559.114	651.2
559.886	631.72
560.657	586.62
561.427	517.94
562.198	547.67
562.969	627.62
563.74	590.72
564.51	547.67
565.281	687.07
566.051	559.97
566.822	565.1
567.592	576.37
568.362	562.02
569.132	570.22
569.902	755.72
570.672	535.37
571.442	622.5
572.212	629.67
572.982	569.2
573.751	617.37
574.521	585.6
575.29	718.83
576.06	626.6
576.829	588.67
577.598	576.37
578.367	521.02
579.136	548.7
579.905	628.65
580.674	656.32
581.443	643
582.212	573.3
582.981	661.44
583.749	564.07
584.518	593.8
585.286	689.11
586.054	717.81
586.823	618.4
587.591	540.5
588.359	661.44
589.127	616.35
589.895	679.89
590.663	680.92
591.431	634.8
592.198	629.67
592.966	650.17
593.734	685.02
594.501	585.6
595.268	611.22
596.036	700.39
596.803	553.82
597.57	577.4
598.337	566.12
599.104	574.32
599.871	643
600.638	631.72
601.405	664.52
602.171	558.95
602.938	746.5
603.704	550.75
604.471	563.05
605.237	698.34
606.004	590.72
606.77	649.15
607.536	687.07
608.302	656.32
609.068	659.39
609.834	621.47
610.599	674.77
611.365	556.9
612.131	622.5
612.896	649.15
613.662	710.63
614.427	631.72
615.193	606.1
615.958	612.25
616.723	636.85
617.488	504.62
618.253	618.4
619.018	615.32
619.783	565.1
620.548	659.39
621.312	608.15
622.077	557.92
622.842	625.57
623.606	754.7
624.37	611.22
625.135	651.2
625.899	637.87
626.663	571.25
627.427	635.82
628.191	624.55
628.955	699.36
629.719	584.57
630.483	615.32
631.246	510.77
632.01	581.5
632.773	686.04
633.537	551.77
634.3	604.05
635.063	570.22
635.827	526.15
636.59	569.2
637.353	653.25
638.116	657.34
638.879	528.2
639.641	701.41
640.404	635.82
641.167	594.82
641.929	652.22
642.692	542.55
643.454	570.22
644.216	659.39
644.979	647.1
645.741	640.95
646.503	685.02
647.265	668.62
648.027	715.76
648.789	557.92
649.551	605.07
650.312	607.12
651.074	582.52
651.835	580.47
652.597	612.25
653.358	639.92
654.12	605.07
654.881	605.07
655.642	618.4
656.403	579.45
657.164	643
657.925	618.4
658.686	665.54
659.447	566.12
660.207	546.65
660.968	628.65
661.728	683.99
662.489	620.45
663.249	610.2
664.01	574.32
664.77	666.57
665.53	652.22
666.29	565.1
667.05	653.25
667.81	585.6
668.57	573.3
669.329	563.05
670.089	589.7
670.849	610.2
671.608	652.22
672.368	529.22
673.127	650.17
673.886	575.35
674.646	525.12
675.405	604.05
676.164	630.7
676.923	634.8
677.682	710.63
678.44	618.4
679.199	541.52
679.958	804.9
680.717	615.32
681.475	544.6
682.233	575.35
682.992	506.67
683.75	590.72
684.508	645.05
685.266	547.67
686.024	665.54
686.782	591.75
687.54	649.15
688.298	645.05
689.056	676.82
689.814	532.3
690.571	626.6
691.329	594.82
692.086	577.4
692.843	565.1
693.601	635.82
694.358	659.39
695.115	547.67
695.872	564.07
696.629	520
697.386	659.39
698.143	679.89
698.9	547.67
699.656	555.87
700.413	589.7
701.169	654.27
701.926	580.47
702.682	613.27
703.438	573.3
704.195	701.41
704.951	518.97
705.707	532.3
706.463	535.37
707.219	573.3
707.974	539.47
708.73	483.09
709.486	567.15
710.241	572.27
710.997	578.42
711.752	604.05
712.508	589.7
713.263	579.45
714.018	607.12
714.773	605.07
715.528	711.66
716.283	651.2
717.038	547.67
717.793	618.4
718.548	587.65
719.303	618.4
720.057	569.2
720.812	566.12
721.566	524.1
722.321	591.75
723.075	589.7
723.829	639.92
724.583	562.02
725.337	587.65
726.091	669.64
726.845	616.35
727.599	520
728.353	606.1
729.106	546.65
729.86	685.02
730.614	523.07
731.367	6081.44
732.12	596.87
732.874	548.7
733.627	611.22
734.38	634.8
735.133	610.2
735.886	575.35
736.639	571.25
737.392	614.3
738.145	541.52
738.897	670.67
739.65	602
740.403	627.62
741.155	627.62
741.907	628.65
742.66	707.56
743.412	513.84
744.164	658.37
744.916	526.15
745.668	615.32
746.42	711.66
747.172	604.05
747.924	597.9
748.676	522.05
749.427	575.35
750.179	626.6
750.93	655.3
751.682	521.02
752.433	638.9
753.184	701.41
753.935	568.17
754.687	542.55
755.438	631.72
756.189	590.72
756.939	563.05
757.69	548.7
758.441	631.72
759.192	591.75
759.942	646.07
760.693	648.12
761.443	618.4
762.194	555.87
762.944	531.27
763.694	647.1
764.444	568.17
765.194	647.1
765.944	619.42
766.694	652.22
767.444	676.82
768.194	650.17
768.943	545.62
769.693	665.54
770.443	609.17
771.192	660.42
771.941	497.44
772.691	632.75
773.44	608.15
774.189	660.42
774.938	627.62
775.687	587.65
776.436	608.15
777.185	631.72
777.934	564.07
778.683	611.22
779.431	603.02
780.18	650.17
780.928	590.72
781.677	584.57
782.425	629.67
783.173	654.27
783.922	654.27
784.67	713.71
785.418	659.39
786.166	711.66
786.914	550.75
787.661	609.17
788.409	608.15
789.157	604.05
789.904	598.92
790.652	687.07
791.399	631.72
792.147	617.37
792.894	672.72
793.641	594.82
794.388	5246.19
795.136	643
795.883	571.25
796.629	665.54
797.376	526.15
798.123	565.1
798.87	528.2
799.616	574.32
800.363	714.73
801.109	713.71
801.856	655.3
802.602	493.34
803.349	696.29
804.095	740.35
804.841	619.42
805.587	618.4
806.333	628.65
807.079	653.25
807.825	620.45
808.57	618.4
809.316	715.76
810.062	628.65
810.807	651.2
811.553	736.25
812.298	667.59
813.043	633.77
813.788	699.36
814.534	624.55
815.279	711.66
816.024	643
816.769	632.75
817.514	656.32
818.258	618.4
819.003	719.86
819.748	15652.94
820.492	619.42
821.237	4707.15
821.981	598.92
822.726	704.49
823.47	694.24
824.214	710.63
824.958	630.7
825.702	648.12
826.446	672.72
827.19	666.57
827.934	719.86
828.678	660.42
829.421	736.25
830.165	665.54
830.909	644.02
831.652	614.3
832.395	696.29
833.139	688.09
833.882	802.85
834.625	633.77
835.368	620.45
836.111	559.97
836.854	617.37
837.597	656.32
838.34	669.64
839.083	663.49
839.825	689.11
840.568	550.75
841.311	632.75
842.053	699.36
842.795	561
843.538	608.15
844.28	564.07
845.022	543.57
845.764	768.02
846.506	528.2
847.248	585.6
847.99	643
848.732	639.92
849.474	597.9
850.215	530.25
850.957	508.72
851.698	565.1
852.44	650.17
853.181	582.52
853.922	678.87
854.664	607.12
855.405	707.56
856.146	522.05
856.887	604.05
857.628	696.29
858.369	528.2
859.109	691.16
859.85	581.5
860.591	681.94
861.331	557.92
862.072	513.84
862.812	496.42
863.553	558.95
864.293	688.09
865.033	582.52
865.773	622.5
866.513	530.25
867.253	538.45
867.993	574.32
868.733	599.95
869.473	622.5
870.213	673.74
870.952	530.25
871.692	591.75
872.431	558.95
873.171	598.92
873.91	551.77
874.649	493.34
875.388	613.27
876.128	597.9
876.867	527.17
877.606	604.05
878.345	585.6
879.083	548.7
879.822	542.55
880.561	615.32
881.299	580.47
882.038	579.45
882.777	638.9
883.515	689.11
884.253	7915.35
884.992	595.85
885.73	580.47
886.468	593.8
887.206	734.2
887.944	639.92
888.682	639.92
889.42	605.07
890.157	608.15
890.895	551.77
891.633	1283.14
892.37	592.77
893.108	639.92
893.845	624.55
894.583	609.17
895.32	527.17
896.057	536.4
896.794	602
897.531	640.95
898.268	582.52
899.005	561
899.742	598.92
900.479	578.42
901.215	600.97
901.952	569.2
902.689	528.2
903.425	500.52
904.162	521.02
904.898	613.27
905.634	678.87
906.37	616.35
907.106	512.82
907.843	614.3
908.579	586.62
909.314	455.41
910.05	589.7
910.786	579.45
911.522	518.97
912.257	647.1
912.993	597.9
913.728	557.92
914.464	574.32
915.199	554.85
915.935	528.2
916.67	553.82
917.405	625.57
918.14	613.27
918.875	612.25
919.61	655.3
920.345	664.52
921.08	690.14
921.814	598.92
922.549	561
923.284	816.17
924.018	569.2
924.752	683.99
925.487	603.02
926.221	633.77
926.955	604.05
927.69	535.37
928.424	590.72
929.158	622.5
929.892	556.9
930.625	622.5
931.359	712.68
932.093	637.87
932.827	559.97
933.56	574.32
934.294	509.74
935.027	613.27
935.761	643
936.494	576.37
937.227	561
937.96	653.25
938.693	656.32
939.426	550.75
940.159	679.89
940.892	603.02
941.625	680.92
942.358	660.42
943.091	579.45
943.823	533.32
944.556	514.87
945.288	566.12
946.021	621.47
946.753	558.95
947.485	653.25
948.217	591.75
948.95	608.15
949.682	511.79
950.414	549.72
951.146	595.85
951.877	569.2
952.609	586.62
953.341	610.2
954.073	682.97
954.804	592.77
955.536	583.55
956.267	617.37
956.998	553.82
957.73	548.7
958.461	543.57
959.192	524.1
959.923	674.77
960.654	611.22
961.385	565.1
962.116	598.92
962.847	575.35
963.578	586.62
964.308	572.27
965.039	512.82
965.769	606.1
966.5	615.32
967.23	569.2
967.961	602
968.691	650.17
969.421	510.77
970.151	641.97
970.881	535.37
971.611	659.39
972.341	600.97
973.071	655.3
973.801	663.49
974.53	558.95
975.26	568.17
975.99	597.9
976.719	654.27
977.448	576.37
978.178	572.27
978.907	626.6
979.636	547.67
980.365	657.34
981.095	677.84
981.824	646.07
982.553	594.82
983.281	563.05
984.01	5.13
984.739	-33.86
985.468	-44.12
986.196	-74.91
986.925	819.25
987.653	594.82
988.382	694.24
989.11	635.82
989.838	631.72
990.566	701.41
991.295	584.57
992.023	679.89
992.751	682.97
993.478	576.37
994.206	628.65
994.934	606.1
995.662	-9.24
996.389	-54.39
997.117	121.07
997.845	90.29
