Data from White_Bg_QEPB07591_00002.txt Node
Date: Thu Aug 22 15:27:20 EDT 2019
User: wcc
Spectrometer: QEPB0759
Trigger mode: 0
Integration Time (sec): 1.749000E0
Scans to average: 1
Electric dark correction enabled: true
Nonlinearity correction enabled: true
Boxcar width: 0
XAxis mode: Wavelengths
Number of Pixels in Spectrum: 1044
>>>>>Begin Spectral Data<<<<<
197.938	643.38
198.749	596.23
199.559	570.61
200.369	554.21
201.179	595.21
201.988	590.08
202.798	709.99
203.608	573.68
204.417	601.36
205.227	547.03
206.036	624.93
206.846	630.06
207.655	664.9
208.464	616.73
209.273	659.78
210.082	568.56
210.891	579.83
211.7	579.83
212.508	563.43
213.317	552.16
214.125	535.76
214.934	543.96
215.742	574.71
216.55	565.48
217.359	546.01
218.167	558.31
218.975	652.6
219.782	551.13
220.59	546.01
221.398	533.71
222.206	719.22
223.013	599.31
223.82	527.56
224.628	557.28
225.435	568.56
226.242	632.11
227.049	623.91
227.856	555.23
228.663	629.03
229.47	585.98
230.277	599.31
231.083	564.46
231.89	556.26
232.696	623.91
233.502	589.06
234.309	552.16
235.115	633.13
235.921	605.46
236.727	519.35
237.533	648.51
238.339	635.18
239.144	602.38
239.95	734.59
240.756	620.83
241.561	613.66
242.366	563.43
243.172	638.26
243.977	675.15
244.782	620.83
245.587	621.86
246.392	645.43
247.197	528.58
248.001	534.73
248.806	572.66
249.611	569.58
250.415	606.48
251.219	591.11
252.024	610.58
252.828	559.33
253.632	558.31
254.436	550.11
255.24	639.28
256.044	661.83
256.848	573.68
257.651	543.96
258.455	603.41
259.258	609.56
260.062	50628.25
260.865	651.58
261.668	626.98
262.471	560.36
263.274	631.08
264.077	537.81
264.88	594.18
265.683	540.88
266.486	589.06
267.288	674.13
268.091	512.18
268.893	597.26
269.696	632.11
270.498	597.26
271.3	611.61
272.102	677.2
272.904	590.08
273.706	598.28
274.508	595.21
275.309	605.46
276.111	602.38
276.913	521.4
277.714	507.05
278.515	562.41
279.317	650.56
280.118	524.48
280.919	598.28
281.72	582.91
282.521	634.16
283.322	555.23
284.122	610.58
284.923	626.98
285.724	579.83
286.524	585.98
287.325	697.7
288.125	529.61
288.925	574.71
289.725	603.41
290.525	675.15
291.325	603.41
292.125	605.46
292.925	632.11
293.724	540.88
294.524	511.15
295.324	542.93
296.123	602.38
296.922	571.63
297.722	886.22
298.521	609.56
299.32	718.19
300.119	508.08
300.918	618.78
301.716	713.07
302.515	592.13
303.314	669
304.112	579.83
304.911	695.65
305.709	585.98
306.507	635.18
307.306	592.13
308.104	581.88
308.902	601.36
309.7	592.13
310.498	659.78
311.295	515.25
312.093	654.65
312.891	686.42
313.688	645.43
314.485	604.43
315.283	728.44
316.08	629.03
316.877	588.03
317.674	592.13
318.471	502.95
319.268	575.73
320.065	617.76
320.862	626.98
321.658	584.96
322.455	652.6
323.251	548.06
324.047	555.23
324.844	701.8
325.64	536.78
326.436	600.33
327.232	583.93
328.028	584.96
328.824	557.28
329.62	646.46
330.415	735.61
331.211	623.91
332.006	600.33
332.802	675.15
333.597	593.16
334.392	675.15
335.187	646.46
335.982	551.13
336.777	631.08
337.572	589.06
338.367	626.98
339.162	640.31
339.956	602.38
340.751	630.06
341.545	650.56
342.34	639.28
343.134	533.71
343.928	667.98
344.722	651.58
345.516	565.48
346.31	569.58
347.104	591.11
347.898	607.51
348.691	588.03
349.485	522.43
350.278	633.13
351.072	714.09
351.865	7233.05
352.658	625.96
353.452	687.45
354.245	574.71
355.038	626.98
355.83	590.08
356.623	566.51
357.416	578.81
358.209	592.13
359.001	566.51
359.794	619.81
360.586	645.43
361.378	660.8
362.17	580.86
362.963	526.53
363.755	702.82
364.546	520.38
365.338	625.96
366.13	625.96
366.922	617.76
367.713	572.66
368.505	593.16
369.296	577.78
370.088	488.6
370.879	555.23
371.67	607.51
372.461	561.38
373.252	578.81
374.043	678.23
374.834	482.45
375.625	628.01
376.415	656.7
377.206	612.63
377.996	574.71
378.787	708.97
379.577	528.58
380.367	487.57
381.157	607.51
381.947	569.58
382.737	616.73
383.527	623.91
384.317	685.4
385.107	590.08
385.896	651.58
386.686	609.56
387.475	638.26
388.265	583.93
389.054	840.12
389.843	587.01
390.632	605.46
391.421	624.93
392.21	663.88
392.999	547.03
393.788	625.96
394.576	636.21
395.365	611.61
396.154	591.11
396.942	565.48
397.73	594.18
398.519	609.56
399.307	626.98
400.095	605.46
400.883	684.37
401.671	609.56
402.459	613.66
403.246	553.18
404.034	585.98
404.822	570.61
405.609	659.78
406.396	678.23
407.184	531.66
407.971	633.13
408.758	635.18
409.545	466.04
410.332	659.78
411.119	658.75
411.906	521.4
412.693	622.88
413.479	654.65
414.266	572.66
415.052	628.01
415.839	585.98
416.625	573.68
417.411	651.58
418.197	678.23
418.983	702.82
419.769	652.6
420.555	591.11
421.341	599.31
422.127	609.56
422.912	580.86
423.698	676.18
424.483	573.68
425.269	554.21
426.054	521.4
426.839	628.01
427.624	564.46
428.409	580.86
429.194	593.16
429.979	649.53
430.764	624.93
431.549	610.58
432.333	588.03
433.118	498.85
433.902	634.16
434.687	568.56
435.471	616.73
436.255	610.58
437.039	590.08
437.823	587.01
438.607	582.91
439.391	602.38
440.175	601.36
440.958	579.83
441.742	587.01
442.526	526.53
443.309	605.46
444.092	677.2
444.876	611.61
445.659	605.46
446.442	669
447.225	664.9
448.008	665.93
448.791	655.68
449.573	738.69
450.356	673.1
451.139	644.41
451.921	554.21
452.704	639.28
453.486	583.93
454.268	658.75
455.05	619.81
455.833	583.93
456.615	634.16
457.396	593.16
458.178	640.31
458.96	530.63
459.742	597.26
460.523	570.61
461.305	568.56
462.086	630.06
462.868	701.8
463.649	607.51
464.43	546.01
465.211	712.04
465.992	550.11
466.773	718.19
467.554	604.43
468.335	621.86
469.115	617.76
469.896	524.48
470.676	495.78
471.457	632.11
472.237	621.86
473.018	620.83
473.798	599.31
474.578	634.16
475.358	565.48
476.138	519.35
476.918	542.93
477.697	569.58
478.477	682.33
479.257	612.63
480.036	548.06
480.816	530.63
481.595	618.78
482.374	612.63
483.153	661.83
483.932	601.36
484.711	591.11
485.49	599.31
486.269	567.53
487.048	500.9
487.827	647.48
488.605	564.46
489.384	547.03
490.162	624.93
490.941	670.03
491.719	561.38
492.497	580.86
493.275	570.61
494.053	630.06
494.831	564.46
495.609	602.38
496.387	623.91
497.164	635.18
497.942	614.68
498.72	567.53
499.497	591.11
500.274	518.33
501.052	598.28
501.829	643.38
502.606	560.36
503.383	599.31
504.16	632.11
504.937	620.83
505.714	546.01
506.49	693.6
507.267	522.43
508.043	620.83
508.82	676.18
509.596	530.63
510.373	573.68
511.149	547.03
511.925	575.73
512.701	607.51
513.477	670.03
514.253	588.03
515.029	576.76
515.804	587.01
516.58	680.28
517.356	585.98
518.131	694.62
518.906	549.08
519.682	612.63
520.457	588.03
521.232	635.18
522.007	621.86
522.782	544.98
523.557	535.76
524.332	526.53
525.107	669
525.881	548.06
526.656	505
527.43	555.23
528.205	570.61
528.979	538.83
529.753	568.56
530.527	653.63
531.302	568.56
532.076	604.43
532.849	588.03
533.623	585.98
534.397	544.98
535.171	601.36
535.944	641.33
536.718	528.58
537.491	714.09
538.265	491.67
539.038	606.48
539.811	603.41
540.584	575.73
541.357	572.66
542.13	695.65
542.903	689.5
543.676	605.46
544.449	602.38
545.221	621.86
545.994	577.78
546.766	600.33
547.539	558.31
548.311	634.16
549.083	613.66
549.855	450.67
550.627	640.31
551.399	592.13
552.171	692.57
552.943	634.16
553.715	548.06
554.486	592.13
555.258	550.11
556.029	536.78
556.801	623.91
557.572	522.43
558.343	568.56
559.114	649.53
559.886	626.98
560.657	579.83
561.427	508.08
562.198	548.06
562.969	617.76
563.74	583.93
564.51	564.46
565.281	684.37
566.051	557.28
566.822	581.88
567.592	584.96
568.362	569.58
569.132	563.43
569.902	749.96
570.672	529.61
571.442	625.96
572.212	632.11
572.982	578.81
573.751	620.83
574.521	594.18
575.29	711.02
576.06	636.21
576.829	591.11
577.598	568.56
578.367	537.81
579.136	556.26
579.905	619.81
580.674	658.75
581.443	643.38
582.212	577.78
582.981	646.46
583.749	574.71
584.518	579.83
585.286	683.35
586.054	738.69
586.823	625.96
587.591	552.16
588.359	646.46
589.127	608.53
589.895	677.2
590.663	683.35
591.431	639.28
592.198	650.56
592.966	645.43
593.734	694.62
594.501	582.91
595.268	603.41
596.036	702.82
596.803	556.26
597.57	567.53
598.337	571.63
599.104	576.76
599.871	632.11
600.638	642.36
601.405	663.88
602.171	567.53
602.938	752.01
603.704	531.66
604.471	554.21
605.237	703.85
606.004	593.16
606.77	645.43
607.536	691.55
608.302	669
609.068	667.98
609.834	606.48
610.599	659.78
611.365	556.26
612.131	606.48
612.896	659.78
613.662	693.6
614.427	653.63
615.193	611.61
615.958	612.63
616.723	638.26
617.488	519.35
618.253	607.51
619.018	608.53
619.783	556.26
620.548	671.05
621.312	605.46
622.077	563.43
622.842	633.13
623.606	761.23
624.37	599.31
625.135	639.28
625.899	647.48
626.663	591.11
627.427	641.33
628.191	624.93
628.955	702.82
629.719	601.36
630.483	607.51
631.246	515.25
632.01	597.26
632.773	689.5
633.537	547.03
634.3	598.28
635.063	570.61
635.827	515.25
636.59	568.56
637.353	653.63
638.116	658.75
638.879	528.58
639.641	708.97
640.404	632.11
641.167	604.43
641.929	645.43
642.692	546.01
643.454	569.58
644.216	637.23
644.979	646.46
645.741	634.16
646.503	684.37
647.265	656.7
648.027	713.07
648.789	553.18
649.551	618.78
650.312	626.98
651.074	573.68
651.835	560.36
652.597	628.01
653.358	643.38
654.12	607.51
654.881	599.31
655.642	620.83
656.403	592.13
657.164	634.16
657.925	606.48
658.686	658.75
659.447	557.28
660.207	559.33
660.968	629.03
661.728	685.4
662.489	632.11
663.249	622.88
664.01	575.73
664.77	666.95
665.53	660.8
666.29	558.31
667.05	650.56
667.81	582.91
668.57	576.76
669.329	580.86
670.089	581.88
670.849	617.76
671.608	640.31
672.368	538.83
673.127	639.28
673.886	563.43
674.646	528.58
675.405	612.63
676.164	645.43
676.923	634.16
677.682	719.22
678.44	625.96
679.199	560.36
679.958	815.53
680.717	614.68
681.475	547.03
682.233	590.08
682.992	507.05
683.75	592.13
684.508	646.46
685.266	548.06
686.024	658.75
686.782	592.13
687.54	649.53
688.298	623.91
689.056	685.4
689.814	524.48
690.571	639.28
691.329	598.28
692.086	595.21
692.843	570.61
693.601	629.03
694.358	658.75
695.115	537.81
695.872	575.73
696.629	527.56
697.386	672.08
698.143	665.93
698.9	541.91
699.656	555.23
700.413	594.18
701.169	659.78
701.926	578.81
702.682	609.56
703.438	571.63
704.195	697.7
704.951	532.68
705.707	522.43
706.463	542.93
707.219	560.36
707.974	524.48
708.73	484.5
709.486	570.61
710.241	591.11
710.997	568.56
711.752	610.58
712.508	594.18
713.263	591.11
714.018	609.56
714.773	600.33
715.528	720.24
716.283	655.68
717.038	537.81
717.793	622.88
718.548	600.33
719.303	619.81
720.057	560.36
720.812	577.78
721.566	515.25
722.321	602.38
723.075	576.76
723.829	629.03
724.583	572.66
725.337	579.83
726.091	671.05
726.845	618.78
727.599	524.48
728.353	592.13
729.106	553.18
729.86	678.23
730.614	525.51
731.367	6148.66
732.12	598.28
732.874	549.08
733.627	616.73
734.38	628.01
735.133	610.58
735.886	575.73
736.639	573.68
737.392	619.81
738.145	546.01
738.897	678.23
739.65	596.23
740.403	609.56
741.155	632.11
741.907	618.78
742.66	693.6
743.412	511.15
744.164	646.46
744.916	525.51
745.668	617.76
746.42	703.85
747.172	607.51
747.924	596.23
748.676	523.45
749.427	570.61
750.179	637.23
750.93	652.6
751.682	519.35
752.433	635.18
753.184	696.67
753.935	568.56
754.687	532.68
755.438	622.88
756.189	598.28
756.939	560.36
757.69	543.96
758.441	640.31
759.192	593.16
759.942	642.36
760.693	641.33
761.443	625.96
762.194	548.06
762.944	537.81
763.694	637.23
764.444	568.56
765.194	657.73
765.944	616.73
766.694	637.23
767.444	682.33
768.194	639.28
768.943	544.98
769.693	653.63
770.443	624.93
771.192	666.95
771.941	478.35
772.691	635.18
773.44	610.58
774.189	652.6
774.938	618.78
775.687	590.08
776.436	611.61
777.185	641.33
777.934	557.28
778.683	601.36
779.431	603.41
780.18	657.73
780.928	597.26
781.677	599.31
782.425	617.76
783.173	652.6
783.922	654.65
784.67	721.27
785.418	677.2
786.166	702.82
786.914	549.08
787.661	624.93
788.409	604.43
789.157	607.51
789.904	594.18
790.652	683.35
791.399	647.48
792.147	631.08
792.894	656.7
793.641	599.31
794.388	5237.44
795.136	632.11
795.883	571.63
796.629	674.13
797.376	532.68
798.123	556.26
798.87	521.4
799.616	567.53
800.363	704.87
801.109	701.8
801.856	655.68
802.602	492.7
803.349	693.6
804.095	747.91
804.841	602.38
805.587	622.88
806.333	636.21
807.079	651.58
807.825	616.73
808.57	615.71
809.316	706.92
810.062	623.91
810.807	652.6
811.553	752.01
812.298	679.25
813.043	640.31
813.788	687.45
814.534	630.06
815.279	699.75
816.024	646.46
816.769	641.33
817.514	651.58
818.258	626.98
819.003	700.77
819.748	15505.42
820.492	616.73
821.237	4724.79
821.981	608.53
822.726	705.9
823.47	704.87
824.214	704.87
824.958	632.11
825.702	640.31
826.446	686.42
827.19	672.08
827.934	717.17
828.678	652.6
829.421	738.69
830.165	652.6
830.909	649.53
831.652	621.86
832.395	688.47
833.139	690.52
833.882	788.89
834.625	642.36
835.368	634.16
836.111	564.46
836.854	619.81
837.597	652.6
838.34	663.88
839.083	654.65
839.825	690.52
840.568	560.36
841.311	636.21
842.053	688.47
842.795	557.28
843.538	615.71
844.28	565.48
845.022	549.08
845.764	761.23
846.506	531.66
847.248	598.28
847.99	645.43
848.732	656.7
849.474	591.11
850.215	537.81
850.957	509.1
851.698	560.36
852.44	652.6
853.181	598.28
853.922	692.57
854.664	596.23
855.405	706.92
856.146	519.35
856.887	598.28
857.628	697.7
858.369	520.38
859.109	681.3
859.85	596.23
860.591	680.28
861.331	559.33
862.072	514.23
862.812	487.57
863.553	553.18
864.293	677.2
865.033	584.96
865.773	626.98
866.513	540.88
867.253	552.16
867.993	575.73
868.733	604.43
869.473	643.38
870.213	681.3
870.952	534.73
871.692	591.11
872.431	553.18
873.171	602.38
873.91	579.83
874.649	481.42
875.388	604.43
876.128	589.06
876.867	518.33
877.606	606.48
878.345	578.81
879.083	550.11
879.822	533.71
880.561	610.58
881.299	588.03
882.038	595.21
882.777	655.68
883.515	674.13
884.253	7908.66
884.992	611.61
885.73	584.96
886.468	591.11
887.206	724.34
887.944	634.16
888.682	642.36
889.42	602.38
890.157	626.98
890.895	565.48
891.633	1289.67
892.37	607.51
893.108	630.06
893.845	608.53
894.583	610.58
895.32	515.25
896.057	532.68
896.794	603.41
897.531	653.63
898.268	583.93
899.005	558.31
899.742	609.56
900.479	575.73
901.215	591.11
901.952	578.81
902.689	528.58
903.425	506.03
904.162	533.71
904.898	614.68
905.634	670.03
906.37	614.68
907.106	501.93
907.843	635.18
908.579	582.91
909.314	459.89
910.05	576.76
910.786	573.68
911.522	505
912.257	636.21
912.993	602.38
913.728	572.66
914.464	577.78
915.199	548.06
915.935	514.23
916.67	568.56
917.405	618.78
918.14	619.81
918.875	606.48
919.61	677.2
920.345	677.2
921.08	703.85
921.814	593.16
922.549	553.18
923.284	821.68
924.018	563.43
924.752	676.18
925.487	612.63
926.221	645.43
926.955	597.26
927.69	534.73
928.424	593.16
929.158	625.96
929.892	558.31
930.625	635.18
931.359	715.12
932.093	632.11
932.827	561.38
933.56	581.88
934.294	500.9
935.027	617.76
935.761	650.56
936.494	578.81
937.227	561.38
937.96	637.23
938.693	658.75
939.426	552.16
940.159	680.28
940.892	595.21
941.625	669
942.358	673.1
943.091	575.73
943.823	528.58
944.556	511.15
945.288	555.23
946.021	610.58
946.753	557.28
947.485	623.91
948.217	593.16
948.95	600.33
949.682	529.61
950.414	541.91
951.146	592.13
951.877	569.58
952.609	588.03
953.341	615.71
954.073	674.13
954.804	600.33
955.536	582.91
956.267	640.31
956.998	540.88
957.73	547.03
958.461	540.88
959.192	520.38
959.923	674.13
960.654	612.63
961.385	567.53
962.116	603.41
962.847	571.63
963.578	593.16
964.308	584.96
965.039	514.23
965.769	618.78
966.5	619.81
967.23	569.58
967.961	612.63
968.691	657.73
969.421	513.2
970.151	647.48
970.881	529.61
971.611	655.68
972.341	608.53
973.071	648.51
973.801	677.2
974.53	566.51
975.26	569.58
975.99	601.36
976.719	652.6
977.448	577.78
978.178	568.56
978.907	618.78
979.636	547.03
980.365	663.88
981.095	665.93
981.824	647.48
982.553	581.88
983.281	563.43
984.01	2.44
984.739	-26.29
985.468	-44.77
986.196	-77.6
986.925	828.85
987.653	594.18
988.382	696.67
989.11	625.96
989.838	643.38
990.566	723.32
991.295	572.66
992.023	664.9
992.751	690.52
993.478	576.76
994.206	634.16
994.934	610.58
995.662	-17.06
996.389	-49.9
997.117	136.84
997.845	76.31
