Data from White_QEPB07591_00004.txt Node
Date: Thu Aug 22 15:26:33 EDT 2019
User: wcc
Spectrometer: QEPB0759
Trigger mode: 0
Integration Time (sec): 1.749000E0
Scans to average: 1
Electric dark correction enabled: true
Nonlinearity correction enabled: true
Boxcar width: 0
XAxis mode: Wavelengths
Number of Pixels in Spectrum: 1044
>>>>>Begin Spectral Data<<<<<
197.938	632.24
198.749	623.01
199.559	558.44
200.369	553.31
201.179	587.14
201.988	580.99
202.798	705
203.608	568.69
204.417	594.31
205.227	547.16
206.036	629.16
206.846	629.16
207.655	669.13
208.464	618.91
209.273	653.76
210.082	557.41
210.891	567.66
211.7	576.89
212.508	570.74
213.317	536.91
214.125	515.38
214.934	558.44
215.742	575.86
216.55	541.01
217.359	538.96
218.167	558.44
218.975	665.03
219.782	561.51
220.59	538.96
221.398	536.91
222.206	710.12
223.013	596.36
223.82	535.88
224.628	548.19
225.435	572.79
226.242	642.48
227.049	617.89
227.856	554.34
228.663	617.89
229.47	589.19
230.277	605.59
231.083	570.74
231.89	563.56
232.696	599.44
233.502	566.64
234.309	563.56
235.115	618.91
235.921	604.56
236.727	521.53
237.533	643.51
238.339	640.43
239.144	603.54
239.95	735.74
240.756	614.81
241.561	608.66
242.366	546.14
243.172	629.16
243.977	677.33
244.782	627.11
245.587	627.11
246.392	643.51
247.197	519.48
248.001	532.81
248.806	566.64
249.611	563.56
250.415	615.84
251.219	575.86
252.024	607.64
252.828	574.84
253.632	564.59
254.436	545.11
255.24	638.38
256.044	661.96
256.848	571.76
257.651	530.76
258.455	596.36
259.258	598.41
260.062	51770.6
260.865	645.56
261.668	613.79
262.471	541.01
263.274	630.19
264.077	532.81
264.88	597.39
265.683	542.04
266.486	596.36
267.288	651.71
268.091	530.76
268.893	598.41
269.696	618.91
270.498	596.36
271.3	599.44
272.102	662.98
272.904	584.06
273.706	590.21
274.508	585.09
275.309	611.74
276.111	609.69
276.913	524.61
277.714	514.36
278.515	545.11
279.317	646.58
280.118	526.66
280.919	604.56
281.72	582.01
282.521	630.19
283.322	559.46
284.122	605.59
284.923	632.24
285.724	574.84
286.524	569.71
287.325	701.92
288.125	530.76
288.925	569.71
289.725	591.24
290.525	687.58
291.325	589.19
292.125	611.74
292.925	642.48
293.724	533.83
294.524	521.53
295.324	537.93
296.123	599.44
296.922	583.04
297.722	841.27
298.521	599.44
299.32	703.97
300.119	515.38
300.918	611.74
301.716	724.47
302.515	570.74
303.314	665.03
304.112	572.79
304.911	691.68
305.709	587.14
306.507	643.51
307.306	591.24
308.104	579.96
308.902	604.56
309.7	593.29
310.498	661.96
311.295	516.41
312.093	641.46
312.891	677.33
313.688	637.36
314.485	601.49
315.283	716.27
316.08	625.06
316.877	583.04
317.674	583.04
318.471	500
319.268	572.79
320.065	636.33
320.862	640.43
321.658	594.31
322.455	653.76
323.251	553.31
324.047	549.21
324.844	701.92
325.64	528.71
326.436	611.74
327.232	570.74
328.028	595.34
328.824	541.01
329.62	633.26
330.415	734.72
331.211	623.01
332.006	594.31
332.802	657.86
333.597	578.94
334.392	648.63
335.187	630.19
335.982	569.71
336.777	640.43
337.572	572.79
338.367	617.89
339.162	652.73
339.956	589.19
340.751	618.91
341.545	637.36
342.34	650.68
343.134	536.91
343.928	671.18
344.722	665.03
345.516	562.54
346.31	549.21
347.104	606.61
347.898	595.34
348.691	595.34
349.485	506.16
350.278	634.29
351.072	702.95
351.865	7085.62
352.658	620.96
353.452	680.4
354.245	584.06
355.038	636.33
355.83	576.89
356.623	571.76
357.416	578.94
358.209	580.99
359.001	559.46
359.794	613.79
360.586	631.21
361.378	661.96
362.17	566.64
362.963	544.09
363.755	691.68
364.546	516.41
365.338	619.94
366.13	635.31
366.922	607.64
367.713	586.11
368.505	596.36
369.296	578.94
370.088	485.65
370.879	553.31
371.67	606.61
372.461	541.01
373.252	600.46
374.043	674.25
374.834	485.65
375.625	637.36
376.415	664.01
377.206	608.66
377.996	588.16
378.787	698.85
379.577	501.03
380.367	496.93
381.157	606.61
381.947	565.61
382.737	611.74
383.527	637.36
384.317	692.7
385.107	592.26
385.896	676.3
386.686	617.89
387.475	652.73
388.265	582.01
389.054	837.18
389.843	598.41
390.632	615.84
391.421	621.99
392.21	688.6
392.999	580.99
393.788	651.71
394.576	664.01
395.365	652.73
396.154	643.51
396.942	593.29
397.73	662.98
398.519	668.11
399.307	687.58
400.095	677.33
400.883	767.51
401.671	682.45
402.459	701.92
403.246	628.14
404.034	673.23
404.822	662.98
405.609	757.26
406.396	771.6
407.184	642.48
407.971	755.21
408.758	747.01
409.545	592.26
410.332	762.38
411.119	774.68
411.906	642.48
412.693	751.11
413.479	784.92
414.266	701.92
415.052	777.75
415.839	765.46
416.625	732.67
417.411	823.86
418.197	852.54
418.983	866.89
419.769	836.15
420.555	758.28
421.341	782.87
422.127	768.53
422.912	769.55
423.698	862.79
424.483	756.23
425.269	738.81
426.054	717.3
426.839	810.54
427.624	744.96
428.409	781.85
429.194	812.59
429.979	859.71
430.764	845.37
431.549	853.57
432.333	832.05
433.118	769.55
433.902	860.74
434.687	830
435.471	878.15
436.255	887.37
437.039	854.59
437.823	856.64
438.607	853.57
439.391	864.84
440.175	877.13
440.958	845.37
441.742	864.84
442.526	812.59
443.309	897.62
444.092	971.37
444.876	900.69
445.659	889.42
446.442	979.56
447.225	968.29
448.008	1015.41
448.791	1018.48
449.573	1121.9
450.356	1066.61
451.139	1052.27
451.921	938.59
452.704	1021.55
453.486	967.27
454.268	1046.13
455.05	1037.94
455.833	996.97
456.615	1058.42
457.396	1056.37
458.178	1092.21
458.96	974.44
459.742	1064.56
460.523	1049.2
461.305	1065.59
462.086	1139.31
462.868	1217.12
463.649	1121.9
464.43	1079.92
465.211	1228.38
465.992	1100.4
466.773	1330.73
467.554	1242.71
468.335	1254.99
469.115	1243.73
469.896	1123.95
470.676	1084.02
471.457	1214.05
472.237	1265.23
473.018	1286.72
473.798	1220.19
474.578	1210.97
475.358	1170.02
476.138	1103.47
476.918	1127.02
477.697	1154.67
478.477	1285.7
479.257	1233.5
480.036	1225.31
480.816	1224.28
481.595	1317.43
482.374	1320.5
483.153	1371.67
483.932	1321.52
484.711	1289.79
485.49	1287.75
486.269	1260.11
487.048	1229.4
487.827	1379.86
488.605	1318.45
489.384	1312.31
490.162	1426.93
490.941	1528.22
491.719	1469.9
492.497	1472.97
493.275	1440.23
494.053	1487.3
494.831	1422.83
495.609	1473.99
496.387	1487.3
497.164	1484.23
497.942	1460.69
498.72	1431.02
499.497	1462.74
500.274	1379.86
501.052	1465.81
501.829	1539.47
502.606	1478.09
503.383	1523.1
504.16	1551.75
504.937	1563
505.714	1470.93
506.49	1615.17
507.267	1464.79
508.043	1565.04
508.82	1651.99
509.596	1517.99
510.373	1545.61
511.149	1531.29
511.925	1574.25
512.701	1622.33
513.477	1721.53
514.253	1649.94
515.029	1643.8
515.804	1655.05
516.58	1772.65
517.356	1673.46
518.131	1791.06
518.906	1649.94
519.682	1737.89
520.457	1719.48
521.232	1746.07
522.007	1775.72
522.782	1702.1
523.557	1691.87
524.332	1700.05
525.107	1869.78
525.881	1729.71
526.656	1676.53
527.43	1719.48
528.205	1753.23
528.979	1712.32
529.753	1755.27
530.527	1813.55
531.302	1713.35
532.076	1776.74
532.849	1737.89
533.623	1752.2
534.397	1713.35
535.171	1748.11
535.944	1822.75
536.718	1675.51
537.491	1874.89
538.265	1649.94
539.038	1768.56
539.811	1765.5
540.584	1753.23
541.357	1717.44
542.13	1840.13
542.903	1849.33
543.676	1766.52
544.449	1757.32
545.221	1795.15
545.994	1743
546.766	1775.72
547.539	1722.55
548.311	1800.26
549.083	1772.65
549.855	1608.01
550.627	1839.11
551.399	1779.81
552.171	1888.18
552.943	1839.11
553.715	1760.38
554.486	1806.39
555.258	1772.65
556.029	1786.97
556.801	1868.76
557.572	1801.28
558.343	1820.71
559.114	1930.09
559.886	1934.18
560.657	1874.89
561.427	1809.46
562.198	1846.27
562.969	1934.18
563.74	1913.73
564.51	1891.25
565.281	2027.18
566.051	1891.25
566.822	1900.45
567.592	1924.98
568.362	1914.76
569.132	1894.31
569.902	2069.07
570.672	1854.44
571.442	1928.04
572.212	1924.98
572.982	1870.8
573.751	1920.89
574.521	1891.25
575.29	1988.34
576.06	1902.49
576.829	1869.78
577.598	1851.38
578.367	1789.01
579.136	1790.04
579.905	1886.13
580.674	1905.56
581.443	1904.53
582.212	1838.09
582.981	1920.89
583.749	1837.07
584.518	1856.49
585.286	1961.77
586.054	2005.72
586.823	1903.51
587.591	1816.62
588.359	1931.11
589.127	1875.91
589.895	1954.62
590.663	1946.44
591.431	1907.6
592.198	1937.24
592.966	1933.15
593.734	1935.2
594.501	1823.77
595.268	1868.76
596.036	1964.84
596.803	1815.6
597.57	1812.53
598.337	1793.1
599.104	1799.24
599.871	1860.58
600.638	1855.47
601.405	1880
602.171	1734.82
602.938	1924.98
603.704	1705.17
604.471	1738.91
605.237	1880
606.004	1757.32
606.77	1819.69
607.536	1843.2
608.302	1824.8
609.068	1828.89
609.834	1772.65
610.599	1814.57
611.365	1696.98
612.131	1774.7
612.896	1828.89
613.662	1856.49
614.427	1810.48
615.193	1754.25
615.958	1785.95
616.723	1786.97
617.488	1653.01
618.253	1764.47
619.018	1749.14
619.783	1702.1
620.548	1809.46
621.312	1726.64
622.077	1670.4
622.842	1745.05
623.606	1860.58
624.37	1722.55
625.135	1739.93
625.899	1715.39
626.663	1656.08
627.427	1721.53
628.191	1675.51
628.955	1727.66
629.719	1632.55
630.483	1634.6
631.246	1547.65
632.01	1597.78
632.773	1690.85
633.537	1542.54
634.3	1583.46
635.063	1534.36
635.827	1472.97
636.59	1516.96
637.353	1574.25
638.116	1573.23
638.879	1437.16
639.641	1617.21
640.404	1499.57
641.167	1465.81
641.929	1529.24
642.692	1394.18
643.454	1412.6
644.216	1478.09
644.979	1481.16
645.741	1452.51
646.503	1513.9
647.265	1485.25
648.027	1527.19
648.789	1371.67
649.551	1412.6
650.312	1383.95
651.074	1361.44
651.835	1335.85
652.597	1370.65
653.358	1415.67
654.12	1359.39
654.881	1329.71
655.642	1352.23
656.403	1308.22
657.164	1363.48
657.925	1330.73
658.686	1378.83
659.447	1257.04
660.207	1279.56
660.968	1362.46
661.728	1413.63
662.489	1349.16
663.249	1345.06
664.01	1312.31
664.77	1386
665.53	1386
666.29	1312.31
667.05	1381.9
667.81	1324.59
668.57	1314.36
669.329	1323.57
670.089	1320.5
670.849	1357.34
671.608	1389.07
672.368	1277.51
673.127	1389.07
673.886	1332.78
674.646	1278.53
675.405	1352.23
676.164	1368.6
676.923	1363.48
677.682	1449.44
678.44	1335.85
679.199	1252.94
679.958	1540.49
680.717	1338.92
681.475	1266.25
682.233	1327.66
682.992	1274.44
683.75	1321.52
684.508	1349.16
685.266	1247.83
686.024	1313.33
686.782	1253.97
687.54	1308.22
688.298	1290.82
689.056	1328.69
689.814	1165.93
690.571	1270.35
691.329	1226.33
692.086	1187.43
692.843	1149.55
693.601	1208.93
694.358	1223.26
695.115	1089.14
695.872	1113.71
696.629	1067.63
697.386	1209.95
698.143	1214.05
698.9	1047.15
699.656	1074.8
700.413	1097.33
701.169	1147.5
701.926	1082.99
702.682	1091.19
703.438	1060.47
704.195	1171.05
704.951	994.92
705.707	1019.5
706.463	992.88
707.219	1037.94
707.974	1002.09
708.73	952.93
709.486	1014.38
710.241	1037.94
710.997	1027.7
711.752	1074.8
712.508	1046.13
713.263	1021.55
714.018	1025.65
714.773	1022.58
715.528	1128.05
716.283	1031.79
717.038	933.47
717.793	980.58
718.548	935.52
719.303	953.95
720.057	885.33
720.812	879.18
721.566	826.93
722.321	877.13
723.075	867.91
723.829	903.76
724.583	838.2
725.337	842.3
726.091	921.18
726.845	876.11
727.599	769.55
728.353	856.64
729.106	781.85
729.86	904.79
730.614	772.63
731.367	6415.04
732.12	854.59
732.874	800.29
733.627	862.79
734.38	860.74
735.133	830
735.886	773.65
736.639	769.55
737.392	806.44
738.145	740.86
738.897	863.81
739.65	790.05
740.403	810.54
741.155	831.03
741.907	803.37
742.66	850.49
743.412	660.93
744.164	750.09
744.916	617.89
745.668	675.28
746.42	773.65
747.172	636.33
747.924	621.99
748.676	528.71
749.427	590.21
750.179	619.94
750.93	653.76
751.682	521.53
752.433	646.58
753.184	697.83
753.935	579.96
754.687	543.06
755.438	646.58
756.189	595.34
756.939	557.41
757.69	541.01
758.441	646.58
759.192	597.39
759.942	641.46
760.693	652.73
761.443	625.06
762.194	551.26
762.944	545.11
763.694	646.58
764.444	580.99
765.194	624.04
765.944	627.11
766.694	647.61
767.444	667.08
768.194	643.51
768.943	541.01
769.693	648.63
770.443	611.74
771.192	666.06
771.941	494.88
772.691	630.19
773.44	609.69
774.189	658.88
774.938	613.79
775.687	580.99
776.436	606.61
777.185	647.61
777.934	550.24
778.683	606.61
779.431	593.29
780.18	665.03
780.928	589.19
781.677	601.49
782.425	635.31
783.173	655.81
783.922	650.68
784.67	719.35
785.418	657.86
786.166	700.9
786.914	541.01
787.661	615.84
788.409	607.64
789.157	594.31
789.904	599.44
790.652	669.13
791.399	632.24
792.147	620.96
792.894	658.88
793.641	608.66
794.388	5692.88
795.136	637.36
795.883	564.59
796.629	659.91
797.376	522.56
798.123	555.36
798.87	530.76
799.616	561.51
800.363	712.17
801.109	699.87
801.856	652.73
802.602	473.35
803.349	700.9
804.095	736.77
804.841	606.61
805.587	617.89
806.333	627.11
807.079	659.91
807.825	629.16
808.57	618.91
809.316	715.25
810.062	626.09
810.807	657.86
811.553	732.67
812.298	673.23
813.043	632.24
813.788	692.7
814.534	614.81
815.279	714.22
816.024	637.36
816.769	627.11
817.514	667.08
818.258	632.24
819.003	722.42
819.748	15414.6
820.492	612.76
821.237	4705.62
821.981	606.61
822.726	705
823.47	713.2
824.214	701.92
824.958	637.36
825.702	644.53
826.446	662.98
827.19	652.73
827.934	722.42
828.678	645.56
829.421	738.81
830.165	649.66
830.909	641.46
831.652	621.99
832.395	684.5
833.139	697.83
833.882	781.85
834.625	640.43
835.368	626.09
836.111	570.74
836.854	612.76
837.597	659.91
838.34	665.03
839.083	655.81
839.825	685.53
840.568	547.16
841.311	634.29
842.053	700.9
842.795	566.64
843.538	603.54
844.28	559.46
845.022	537.93
845.764	766.48
846.506	532.81
847.248	584.06
847.99	632.24
848.732	639.41
849.474	590.21
850.215	523.58
850.957	501.03
851.698	570.74
852.44	645.56
853.181	577.91
853.922	688.6
854.664	592.26
855.405	708.07
856.146	519.48
856.887	598.41
857.628	698.85
858.369	518.46
859.109	677.33
859.85	590.21
860.591	666.06
861.331	543.06
862.072	522.56
862.812	485.65
863.553	554.34
864.293	672.21
865.033	589.19
865.773	608.66
866.513	527.68
867.253	553.31
867.993	577.91
868.733	593.29
869.473	634.29
870.213	666.06
870.952	526.66
871.692	593.29
872.431	562.54
873.171	591.24
873.91	575.86
874.649	497.95
875.388	620.96
876.128	604.56
876.867	530.76
877.606	602.51
878.345	589.19
879.083	541.01
879.822	536.91
880.561	606.61
881.299	574.84
882.038	583.04
882.777	639.41
883.515	688.6
884.253	7907.78
884.992	603.54
885.73	588.16
886.468	585.09
887.206	716.27
887.944	636.33
888.682	649.66
889.42	613.79
890.157	619.94
890.895	551.26
891.633	1272.39
892.37	603.54
893.108	626.09
893.845	598.41
894.583	596.36
895.32	520.51
896.057	538.96
896.794	605.59
897.531	656.83
898.268	569.71
899.005	534.86
899.742	589.19
900.479	573.81
901.215	587.14
901.952	564.59
902.689	521.53
903.425	493.85
904.162	525.63
904.898	604.56
905.634	662.98
906.37	594.31
907.106	518.46
907.843	613.79
908.579	580.99
909.314	463.1
910.05	572.79
910.786	569.71
911.522	510.26
912.257	631.21
912.993	592.26
913.728	561.51
914.464	574.84
915.199	539.98
915.935	510.26
916.67	561.51
917.405	611.74
918.14	613.79
918.875	605.59
919.61	654.78
920.345	670.16
921.08	701.92
921.814	595.34
922.549	560.49
923.284	819.76
924.018	564.59
924.752	668.11
925.487	591.24
926.221	634.29
926.955	595.34
927.69	536.91
928.424	588.16
929.158	626.09
929.892	558.44
930.625	634.29
931.359	700.9
932.093	646.58
932.827	551.26
933.56	564.59
934.294	506.16
935.027	603.54
935.761	652.73
936.494	566.64
937.227	544.09
937.96	630.19
938.693	638.38
939.426	538.96
940.159	677.33
940.892	607.64
941.625	693.73
942.358	661.96
943.091	563.56
943.823	536.91
944.556	509.23
945.288	570.74
946.021	619.94
946.753	557.41
947.485	646.58
948.217	594.31
948.95	606.61
949.682	511.28
950.414	538.96
951.146	590.21
951.877	570.74
952.609	575.86
953.341	611.74
954.073	682.45
954.804	612.76
955.536	580.99
956.267	619.94
956.998	552.29
957.73	550.24
958.461	549.21
959.192	522.56
959.923	666.06
960.654	614.81
961.385	565.61
962.116	589.19
962.847	563.56
963.578	577.91
964.308	582.01
965.039	516.41
965.769	604.56
966.5	619.94
967.23	565.61
967.961	596.36
968.691	646.58
969.421	509.23
970.151	649.66
970.881	526.66
971.611	658.88
972.341	600.46
973.071	645.56
973.801	673.23
974.53	552.29
975.26	570.74
975.99	589.19
976.719	655.81
977.448	579.96
978.178	576.89
978.907	615.84
979.636	541.01
980.365	650.68
981.095	673.23
981.824	648.63
982.553	601.49
983.281	557.41
984.01	1.54
984.739	-26.17
985.468	-48.74
986.196	-81.58
986.925	835.13
987.653	594.31
988.382	697.83
989.11	634.29
989.838	638.38
990.566	716.27
991.295	585.09
992.023	677.33
992.751	687.58
993.478	577.91
994.206	636.33
994.934	602.51
995.662	-11.8
996.389	-50.79
997.117	134.92
997.845	82.6
