Data from White_Bg_QEPB07591_00006.txt Node
Date: Thu Aug 22 15:27:27 EDT 2019
User: wcc
Spectrometer: QEPB0759
Trigger mode: 0
Integration Time (sec): 1.749000E0
Scans to average: 1
Electric dark correction enabled: true
Nonlinearity correction enabled: true
Boxcar width: 0
XAxis mode: Wavelengths
Number of Pixels in Spectrum: 1044
>>>>>Begin Spectral Data<<<<<
197.938	641.59
198.749	600.59
199.559	568.81
200.369	546.26
201.179	603.66
201.988	588.29
202.798	714.35
203.608	567.79
204.417	579.07
205.227	547.29
206.036	629.29
206.846	635.44
207.655	666.18
208.464	635.44
209.273	665.16
210.082	573.94
210.891	580.09
211.7	586.24
212.508	580.09
213.317	560.61
214.125	539.09
214.934	555.49
215.742	580.09
216.55	547.29
217.359	540.11
218.167	578.04
218.975	660.04
219.782	553.44
220.59	558.56
221.398	530.89
222.206	724.6
223.013	588.29
223.82	528.84
224.628	559.59
225.435	571.89
226.242	641.59
227.049	636.46
227.856	557.54
228.663	622.11
229.47	582.14
230.277	591.37
231.083	572.91
231.89	563.69
232.696	615.96
233.502	581.12
234.309	564.71
235.115	619.04
235.921	608.79
236.727	525.76
237.533	647.74
238.339	644.66
239.144	611.86
239.95	729.72
240.756	613.91
241.561	615.96
242.366	558.56
243.172	638.51
243.977	670.28
244.782	628.26
245.587	629.29
246.392	638.51
247.197	529.86
248.001	530.89
248.806	583.17
249.611	565.74
250.415	609.81
251.219	589.32
252.024	608.79
252.828	550.36
253.632	569.84
254.436	563.69
255.24	643.64
256.044	651.84
256.848	570.86
257.651	539.09
258.455	584.19
259.258	599.57
260.062	49548.86
260.865	654.91
261.668	619.04
262.471	559.59
263.274	641.59
264.077	538.06
264.88	595.47
265.683	536.01
266.486	585.22
267.288	649.79
268.091	523.71
268.893	584.19
269.696	609.81
270.498	595.47
271.3	602.64
272.102	666.18
272.904	582.14
273.706	595.47
274.508	582.14
275.309	627.24
276.111	620.06
276.913	525.76
277.714	519.61
278.515	551.39
279.317	651.84
280.118	539.09
280.919	600.59
281.72	591.37
282.521	635.44
283.322	546.26
284.122	630.31
284.923	622.11
285.724	580.09
286.524	582.14
287.325	681.56
288.125	514.48
288.925	582.14
289.725	598.54
290.525	690.78
291.325	589.32
292.125	619.04
292.925	640.56
293.724	547.29
294.524	519.61
295.324	555.49
296.123	603.66
296.922	594.44
297.722	874.18
298.521	616.99
299.32	708.2
300.119	523.71
300.918	613.91
301.716	706.15
302.515	589.32
303.314	668.23
304.112	585.22
304.911	696.93
305.709	580.09
306.507	657.99
307.306	586.24
308.104	569.84
308.902	603.66
309.7	594.44
310.498	648.76
311.295	521.66
312.093	656.96
312.891	701.03
313.688	645.69
314.485	596.49
315.283	725.62
316.08	616.99
316.877	574.97
317.674	582.14
318.471	510.38
319.268	573.94
320.065	632.36
320.862	646.71
321.658	595.47
322.455	655.94
323.251	557.54
324.047	563.69
324.844	702.05
325.64	546.26
326.436	598.54
327.232	591.37
328.028	591.37
328.824	545.24
329.62	653.89
330.415	734.84
331.211	621.09
332.006	591.37
332.802	664.13
333.597	590.34
334.392	657.99
335.187	628.26
335.982	559.59
336.777	638.51
337.572	584.19
338.367	628.26
339.162	661.06
339.956	591.37
340.751	626.21
341.545	652.86
342.34	660.04
343.134	551.39
343.928	680.53
344.722	666.18
345.516	558.56
346.31	556.51
347.104	621.09
347.898	601.62
348.691	598.54
349.485	515.51
350.278	639.54
351.072	710.25
351.865	7261.6
352.658	613.91
353.452	671.31
354.245	572.91
355.038	643.64
355.83	580.09
356.623	592.39
357.416	568.81
358.209	584.19
359.001	559.59
359.794	614.94
360.586	648.76
361.378	643.64
362.17	588.29
362.963	549.34
363.755	704.1
364.546	529.86
365.338	630.31
366.13	640.56
366.922	624.16
367.713	595.47
368.505	591.37
369.296	587.27
370.088	496.03
370.879	553.44
371.67	605.71
372.461	549.34
373.252	586.24
374.043	679.51
374.834	492.96
375.625	628.26
376.415	662.08
377.206	614.94
377.996	572.91
378.787	687.71
379.577	515.51
380.367	504.23
381.157	619.04
381.947	572.91
382.737	619.04
383.527	616.99
384.317	685.66
385.107	591.37
385.896	642.61
386.686	610.84
387.475	646.71
388.265	577.02
389.054	835.26
389.843	584.19
390.632	591.37
391.421	620.06
392.21	648.76
392.999	553.44
393.788	612.89
394.576	640.56
395.365	619.04
396.154	591.37
396.942	579.07
397.73	608.79
398.519	609.81
399.307	611.86
400.095	615.96
400.883	696.93
401.671	602.64
402.459	609.81
403.246	562.66
404.034	590.34
404.822	579.07
405.609	677.46
406.396	683.61
407.184	534.99
407.971	640.56
408.758	648.76
409.545	474.5
410.332	645.69
411.119	654.91
411.906	541.14
412.693	632.36
413.479	646.71
414.266	570.86
415.052	641.59
415.839	597.52
416.625	573.94
417.411	651.84
418.197	665.16
418.983	703.08
419.769	648.76
420.555	594.44
421.341	596.49
422.127	605.71
422.912	586.24
423.698	667.21
424.483	571.89
425.269	558.56
426.054	521.66
426.839	612.89
427.624	552.41
428.409	578.04
429.194	603.66
429.979	629.29
430.764	621.09
431.549	600.59
432.333	579.07
433.118	510.38
433.902	644.66
434.687	570.86
435.471	626.21
436.255	607.76
437.039	583.17
437.823	599.57
438.607	580.09
439.391	606.74
440.175	606.74
440.958	578.04
441.742	594.44
442.526	533.96
443.309	607.76
444.092	669.26
444.876	602.64
445.659	585.22
446.442	679.51
447.225	667.21
448.008	682.58
448.791	643.64
449.573	707.18
450.356	689.76
451.139	654.91
451.921	552.41
452.704	638.51
453.486	599.57
454.268	657.99
455.05	616.99
455.833	575.99
456.615	627.24
457.396	595.47
458.178	640.56
458.96	529.86
459.742	601.62
460.523	581.12
461.305	571.89
462.086	628.26
462.868	719.47
463.649	615.96
464.43	559.59
465.211	708.2
465.992	556.51
466.773	726.65
467.554	597.52
468.335	613.91
469.115	614.94
469.896	533.96
470.676	498.08
471.457	615.96
472.237	618.01
473.018	604.69
473.798	597.52
474.578	633.39
475.358	589.32
476.138	529.86
476.918	549.34
477.697	575.99
478.477	689.76
479.257	622.11
480.036	566.76
480.816	523.71
481.595	613.91
482.374	584.19
483.153	657.99
483.932	612.89
484.711	609.81
485.49	609.81
486.269	567.79
487.048	521.66
487.827	647.74
488.605	573.94
489.384	560.61
490.162	618.01
490.941	685.66
491.719	569.84
492.497	593.42
493.275	578.04
494.053	612.89
494.831	555.49
495.609	610.84
496.387	642.61
497.164	620.06
497.942	615.96
498.72	572.91
499.497	596.49
500.274	507.31
501.052	581.12
501.829	639.54
502.606	556.51
503.383	593.42
504.16	631.34
504.937	622.11
505.714	539.09
506.49	678.48
507.267	522.69
508.043	613.91
508.82	682.58
509.596	523.71
510.373	565.74
511.149	529.86
511.925	570.86
512.701	612.89
513.477	682.58
514.253	595.47
515.029	581.12
515.804	582.14
516.58	678.48
517.356	587.27
518.131	692.83
518.906	548.31
519.682	611.86
520.457	585.22
521.232	622.11
522.007	623.14
522.782	560.61
523.557	531.91
524.332	536.01
525.107	682.58
525.881	557.54
526.656	513.46
527.43	537.04
528.205	575.99
528.979	532.94
529.753	561.64
530.527	655.94
531.302	565.74
532.076	615.96
532.849	591.37
533.623	583.17
534.397	542.16
535.171	605.71
535.944	638.51
536.718	522.69
537.491	716.4
538.265	497.06
539.038	608.79
539.811	613.91
540.584	583.17
541.357	565.74
542.13	686.68
542.903	709.23
543.676	612.89
544.449	601.62
545.221	626.21
545.994	584.19
546.766	607.76
547.539	554.46
548.311	633.39
549.083	604.69
549.855	450.92
550.627	644.66
551.399	599.57
552.171	692.83
552.943	628.26
553.715	548.31
554.486	587.27
555.258	552.41
556.029	531.91
556.801	631.34
557.572	518.59
558.343	568.81
559.114	651.84
559.886	635.44
560.657	590.34
561.427	522.69
562.198	557.54
562.969	618.01
563.74	583.17
564.51	563.69
565.281	672.33
566.051	561.64
566.822	575.99
567.592	586.24
568.362	568.81
569.132	566.76
569.902	745.09
570.672	530.89
571.442	630.31
572.212	632.36
572.982	585.22
573.751	634.41
574.521	593.42
575.29	698.98
576.06	623.14
576.829	589.32
577.598	568.81
578.367	534.99
579.136	555.49
579.905	606.74
580.674	668.23
581.443	644.66
582.212	558.56
582.981	665.16
583.749	562.66
584.518	585.22
585.286	688.73
586.054	738.94
586.823	613.91
587.591	554.46
588.359	655.94
589.127	603.66
589.895	696.93
590.663	667.21
591.431	638.51
592.198	637.49
592.966	647.74
593.734	692.83
594.501	579.07
595.268	624.16
596.036	694.88
596.803	556.51
597.57	578.04
598.337	579.07
599.104	568.81
599.871	639.54
600.638	632.36
601.405	668.23
602.171	554.46
602.938	761.49
603.704	532.94
604.471	572.91
605.237	690.78
606.004	599.57
606.77	659.01
607.536	684.63
608.302	666.18
609.068	661.06
609.834	614.94
610.599	663.11
611.365	567.79
612.131	621.09
612.896	666.18
613.662	709.23
614.427	645.69
615.193	606.74
615.958	612.89
616.723	648.76
617.488	503.21
618.253	614.94
619.018	618.01
619.783	564.71
620.548	669.26
621.312	604.69
622.077	560.61
622.842	625.19
623.606	742.02
624.37	604.69
625.135	657.99
625.899	644.66
626.663	578.04
627.427	647.74
628.191	631.34
628.955	690.78
629.719	602.64
630.483	618.01
631.246	516.54
632.01	584.19
632.773	693.85
633.537	552.41
634.3	598.54
635.063	575.99
635.827	524.74
636.59	574.97
637.353	638.51
638.116	660.04
638.879	538.06
639.641	716.4
640.404	634.41
641.167	585.22
641.929	643.64
642.692	534.99
643.454	564.71
644.216	649.79
644.979	654.91
645.741	644.66
646.503	670.28
647.265	675.41
648.027	703.08
648.789	556.51
649.551	620.06
650.312	600.59
651.074	580.09
651.835	571.89
652.597	631.34
653.358	649.79
654.12	603.66
654.881	599.57
655.642	621.09
656.403	572.91
657.164	628.26
657.925	616.99
658.686	662.08
659.447	554.46
660.207	561.64
660.968	641.59
661.728	697.95
662.489	621.09
663.249	626.21
664.01	589.32
664.77	671.31
665.53	649.79
666.29	557.54
667.05	665.16
667.81	589.32
668.57	582.14
669.329	596.49
670.089	577.02
670.849	606.74
671.608	647.74
672.368	529.86
673.127	657.99
673.886	583.17
674.646	532.94
675.405	611.86
676.164	642.61
676.923	655.94
677.682	731.77
678.44	623.14
679.199	546.26
679.958	810.67
680.717	606.74
681.475	556.51
682.233	585.22
682.992	514.48
683.75	591.37
684.508	625.19
685.266	538.06
686.024	643.64
686.782	581.12
687.54	663.11
688.298	634.41
689.056	674.38
689.814	531.91
690.571	630.31
691.329	600.59
692.086	579.07
692.843	570.86
693.601	627.24
694.358	661.06
695.115	556.51
695.872	564.71
696.629	529.86
697.386	675.41
698.143	677.46
698.9	542.16
699.656	572.91
700.413	602.64
701.169	650.81
701.926	577.02
702.682	608.79
703.438	575.99
704.195	709.23
704.951	522.69
705.707	533.96
706.463	538.06
707.219	560.61
707.974	554.46
708.73	498.08
709.486	571.89
710.241	574.97
710.997	572.91
711.752	607.76
712.508	608.79
713.263	591.37
714.018	582.14
714.773	588.29
715.528	735.87
716.283	671.31
717.038	557.54
717.793	612.89
718.548	591.37
719.303	628.26
720.057	546.26
720.812	562.66
721.566	523.71
722.321	590.34
723.075	573.94
723.829	634.41
724.583	574.97
725.337	579.07
726.091	657.99
726.845	626.21
727.599	520.64
728.353	608.79
729.106	542.16
729.86	695.9
730.614	523.71
731.367	6471.84
732.12	586.24
732.874	546.26
733.627	622.11
734.38	626.21
735.133	625.19
735.886	571.89
736.639	579.07
737.392	620.06
738.145	547.29
738.897	676.43
739.65	605.71
740.403	631.34
741.155	621.09
741.907	616.99
742.66	693.85
743.412	516.54
744.164	644.66
744.916	516.54
745.668	599.57
746.42	712.3
747.172	619.04
747.924	598.54
748.676	520.64
749.427	590.34
750.179	631.34
750.93	647.74
751.682	526.79
752.433	650.81
753.184	707.18
753.935	577.02
754.687	541.14
755.438	641.59
756.189	598.54
756.939	562.66
757.69	554.46
758.441	640.56
759.192	590.34
759.942	659.01
760.693	649.79
761.443	624.16
762.194	558.56
762.944	531.91
763.694	637.49
764.444	577.02
765.194	637.49
765.944	625.19
766.694	655.94
767.444	682.58
768.194	647.74
768.943	548.31
769.693	648.76
770.443	613.91
771.192	665.16
771.941	502.18
772.691	636.46
773.44	606.74
774.189	656.96
774.938	615.96
775.687	587.27
776.436	613.91
777.185	634.41
777.934	553.44
778.683	610.84
779.431	593.42
780.18	671.31
780.928	595.47
781.677	598.54
782.425	636.46
783.173	662.08
783.922	646.71
784.67	718.45
785.418	671.31
786.166	703.08
786.914	556.51
787.661	624.16
788.409	612.89
789.157	612.89
789.904	599.57
790.652	678.48
791.399	648.76
792.147	629.29
792.894	663.11
793.641	602.64
794.388	5395.93
795.136	634.41
795.883	571.89
796.629	656.96
797.376	530.89
798.123	555.49
798.87	539.09
799.616	561.64
800.363	705.13
801.109	715.37
801.856	652.86
802.602	483.73
803.349	693.85
804.095	732.79
804.841	619.04
805.587	618.01
806.333	631.34
807.079	665.16
807.825	630.31
808.57	624.16
809.316	708.2
810.062	634.41
810.807	673.36
811.553	760.46
812.298	686.68
813.043	635.44
813.788	702.05
814.534	624.16
815.279	697.95
816.024	663.11
816.769	623.14
817.514	670.28
818.258	631.34
819.003	704.1
819.748	15608.6
820.492	626.21
821.237	4719.97
821.981	600.59
822.726	705.13
823.47	714.35
824.214	690.78
824.958	637.49
825.702	649.79
826.446	665.16
827.19	687.71
827.934	722.55
828.678	656.96
829.421	747.14
830.165	659.01
830.909	634.41
831.652	623.14
832.395	698.98
833.139	695.9
833.882	795.3
834.625	638.51
835.368	635.44
836.111	574.97
836.854	615.96
837.597	651.84
838.34	677.46
839.083	670.28
839.825	694.88
840.568	551.39
841.311	632.36
842.053	706.15
842.795	575.99
843.538	621.09
844.28	553.44
845.022	545.24
845.764	780.95
846.506	539.09
847.248	594.44
847.99	642.61
848.732	643.64
849.474	588.29
850.215	521.66
850.957	511.41
851.698	571.89
852.44	639.54
853.181	587.27
853.922	693.85
854.664	611.86
855.405	703.08
856.146	520.64
856.887	610.84
857.628	700
858.369	524.74
859.109	672.33
859.85	588.29
860.591	680.53
861.331	564.71
862.072	515.51
862.812	501.16
863.553	558.56
864.293	689.76
865.033	581.12
865.773	616.99
866.513	536.01
867.253	547.29
867.993	571.89
868.733	606.74
869.473	624.16
870.213	676.43
870.952	522.69
871.692	613.91
872.431	549.34
873.171	605.71
873.91	565.74
874.649	492.96
875.388	614.94
876.128	594.44
876.867	540.11
877.606	610.84
878.345	581.12
879.083	560.61
879.822	538.06
880.561	604.69
881.299	584.19
882.038	592.39
882.777	647.74
883.515	686.68
884.253	7923.04
884.992	607.76
885.73	595.47
886.468	598.54
887.206	729.72
887.944	654.91
888.682	653.89
889.42	605.71
890.157	625.19
890.895	543.19
891.633	1289.92
892.37	607.76
893.108	624.16
893.845	632.36
894.583	608.79
895.32	512.43
896.057	539.09
896.794	613.91
897.531	648.76
898.268	594.44
899.005	559.59
899.742	602.64
900.479	574.97
901.215	600.59
901.952	572.91
902.689	536.01
903.425	506.28
904.162	516.54
904.898	604.69
905.634	671.31
906.37	622.11
907.106	512.43
907.843	631.34
908.579	581.12
909.314	466.3
910.05	566.76
910.786	592.39
911.522	512.43
912.257	650.81
912.993	596.49
913.728	550.36
914.464	583.17
915.199	544.21
915.935	517.56
916.67	564.71
917.405	629.29
918.14	614.94
918.875	614.94
919.61	672.33
920.345	674.38
921.08	690.78
921.814	604.69
922.549	546.26
923.284	830.13
924.018	560.61
924.752	688.73
925.487	605.71
926.221	638.51
926.955	587.27
927.69	550.36
928.424	597.52
929.158	626.21
929.892	560.61
930.625	624.16
931.359	715.37
932.093	641.59
932.827	554.46
933.56	586.24
934.294	511.41
935.027	621.09
935.761	649.79
936.494	586.24
937.227	568.81
937.96	650.81
938.693	653.89
939.426	545.24
940.159	682.58
940.892	623.14
941.625	682.58
942.358	648.76
943.091	589.32
943.823	546.26
944.556	520.64
945.288	554.46
946.021	614.94
946.753	563.69
947.485	643.64
948.217	606.74
948.95	610.84
949.682	527.81
950.414	542.16
951.146	595.47
951.877	574.97
952.609	597.52
953.341	619.04
954.073	688.73
954.804	614.94
955.536	579.07
956.267	645.69
956.998	547.29
957.73	549.34
958.461	542.16
959.192	542.16
959.923	684.63
960.654	603.66
961.385	567.79
962.116	610.84
962.847	568.81
963.578	593.42
964.308	591.37
965.039	512.43
965.769	611.86
966.5	619.04
967.23	575.99
967.961	597.52
968.691	644.66
969.421	510.38
970.151	650.81
970.881	528.84
971.611	654.91
972.341	596.49
973.071	650.81
973.801	667.21
974.53	565.74
975.26	569.84
975.99	606.74
976.719	654.91
977.448	572.91
978.178	580.09
978.907	614.94
979.636	547.29
980.365	648.76
981.095	681.56
981.824	654.91
982.553	601.62
983.281	547.29
984.01	3.72
984.739	-23.99
985.468	-47.59
986.196	-78.37
986.925	809.64
987.653	592.39
988.382	704.1
989.11	634.41
989.838	648.76
990.566	723.57
991.295	585.22
992.023	674.38
992.751	685.66
993.478	568.81
994.206	648.76
994.934	595.47
995.662	-14.75
996.389	-54.77
997.117	135.05
997.845	80.67
