Data from White_QEPB07591_00008.txt Node
Date: Thu Aug 22 15:26:40 EDT 2019
User: wcc
Spectrometer: QEPB0759
Trigger mode: 0
Integration Time (sec): 1.749000E0
Scans to average: 1
Electric dark correction enabled: true
Nonlinearity correction enabled: true
Boxcar width: 0
XAxis mode: Wavelengths
Number of Pixels in Spectrum: 1044
>>>>>Begin Spectral Data<<<<<
197.938	633.39
198.749	604.69
199.559	562.66
200.369	565.74
201.179	590.34
201.988	581.12
202.798	708.2
203.608	572.91
204.417	583.17
205.227	541.14
206.036	634.41
206.846	642.61
207.655	664.13
208.464	623.14
209.273	656.96
210.082	568.81
210.891	572.91
211.7	594.44
212.508	566.76
213.317	562.66
214.125	536.01
214.934	565.74
215.742	567.79
216.55	558.56
217.359	530.89
218.167	564.71
218.975	644.66
219.782	556.51
220.59	541.14
221.398	534.99
222.206	719.47
223.013	615.96
223.82	536.01
224.628	563.69
225.435	580.09
226.242	640.56
227.049	623.14
227.856	564.71
228.663	618.01
229.47	591.37
230.277	597.52
231.083	570.86
231.89	547.29
232.696	620.06
233.502	565.74
234.309	575.99
235.115	621.09
235.921	613.91
236.727	524.74
237.533	652.86
238.339	633.39
239.144	609.81
239.95	738.94
240.756	618.01
241.561	603.66
242.366	555.49
243.172	616.99
243.977	687.71
244.782	618.01
245.587	615.96
246.392	632.36
247.197	526.79
248.001	529.86
248.806	581.12
249.611	561.64
250.415	612.89
251.219	588.29
252.024	627.24
252.828	572.91
253.632	560.61
254.436	559.59
255.24	649.79
256.044	655.94
256.848	579.07
257.651	553.44
258.455	593.42
259.258	597.52
260.062	53445.59
260.865	650.81
261.668	618.01
262.471	546.26
263.274	623.14
264.077	532.94
264.88	594.44
265.683	545.24
266.486	587.27
267.288	657.99
268.091	541.14
268.893	585.22
269.696	626.21
270.498	619.04
271.3	607.76
272.102	669.26
272.904	585.22
273.706	591.37
274.508	593.42
275.309	623.14
276.111	604.69
276.913	526.79
277.714	512.43
278.515	568.81
279.317	645.69
280.118	534.99
280.919	608.79
281.72	581.12
282.521	632.36
283.322	571.89
284.122	612.89
284.923	643.64
285.724	574.97
286.524	577.02
287.325	701.03
288.125	538.06
288.925	573.94
289.725	597.52
290.525	679.51
291.325	594.44
292.125	609.81
292.925	657.99
293.724	536.01
294.524	518.59
295.324	549.34
296.123	590.34
296.922	598.54
297.722	870.09
298.521	604.69
299.32	701.03
300.119	514.48
300.918	625.19
301.716	709.23
302.515	580.09
303.314	680.53
304.112	583.17
304.911	706.15
305.709	567.79
306.507	646.71
307.306	584.19
308.104	578.04
308.902	588.29
309.7	597.52
310.498	666.18
311.295	517.56
312.093	652.86
312.891	671.31
313.688	642.61
314.485	602.64
315.283	722.55
316.08	624.16
316.877	594.44
317.674	586.24
318.471	474.5
319.268	567.79
320.065	634.41
320.862	633.39
321.658	590.34
322.455	651.84
323.251	545.24
324.047	546.26
324.844	702.05
325.64	530.89
326.436	601.62
327.232	569.84
328.028	590.34
328.824	543.19
329.62	631.34
330.415	731.77
331.211	616.99
332.006	606.74
332.802	662.08
333.597	581.12
334.392	656.96
335.187	633.39
335.982	559.59
336.777	638.51
337.572	587.27
338.367	616.99
339.162	664.13
339.956	592.39
340.751	618.01
341.545	656.96
342.34	648.76
343.134	547.29
343.928	654.91
344.722	668.23
345.516	555.49
346.31	566.76
347.104	601.62
347.898	591.37
348.691	603.66
349.485	515.51
350.278	646.71
351.072	705.13
351.865	7267.66
352.658	622.11
353.452	688.73
354.245	562.66
355.038	640.56
355.83	586.24
356.623	578.04
357.416	581.12
358.209	585.22
359.001	563.69
359.794	610.84
360.586	635.44
361.378	662.08
362.17	584.19
362.963	530.89
363.755	684.63
364.546	518.59
365.338	629.29
366.13	641.59
366.922	602.64
367.713	589.32
368.505	590.34
369.296	579.07
370.088	493.98
370.879	542.16
371.67	596.49
372.461	553.44
373.252	603.66
374.043	686.68
374.834	489.88
375.625	626.21
376.415	663.11
377.206	611.86
377.996	570.86
378.787	720.5
379.577	514.48
380.367	499.11
381.157	629.29
381.947	574.97
382.737	623.14
383.527	629.29
384.317	690.78
385.107	596.49
385.896	665.16
386.686	625.19
387.475	644.66
388.265	589.32
389.054	859.84
389.843	611.86
390.632	619.04
391.421	649.79
392.21	690.78
392.999	572.91
393.788	653.89
394.576	673.36
395.365	656.96
396.154	636.46
396.942	612.89
397.73	657.99
398.519	672.33
399.307	679.51
400.095	674.38
400.883	761.49
401.671	682.58
402.459	687.71
403.246	637.49
404.034	681.56
404.822	673.36
405.609	754.31
406.396	778.9
407.184	633.39
407.971	753.29
408.758	751.24
409.545	586.24
410.332	748.17
411.119	759.44
411.906	644.66
412.693	742.02
413.479	789.15
414.266	708.2
415.052	783
415.839	761.49
416.625	727.67
417.411	822.96
418.197	840.38
418.983	887.5
419.769	822.96
420.555	756.36
421.341	771.73
422.127	780.95
422.912	755.34
423.698	863.94
424.483	745.09
425.269	747.14
426.054	694.88
426.839	809.64
427.624	761.49
428.409	786.08
429.194	807.59
429.979	859.84
430.764	853.7
431.549	845.5
432.333	825.01
433.118	748.17
433.902	860.87
434.687	828.08
435.471	871.11
436.255	870.09
437.039	859.84
437.823	875.21
438.607	851.65
439.391	884.43
440.175	879.31
440.958	860.87
441.742	869.06
442.526	810.67
443.309	899.79
444.092	981.74
444.876	905.94
445.659	889.55
446.442	996.08
447.225	975.59
448.008	1018.61
448.791	1013.49
449.573	1115.89
450.356	1056.5
451.139	1038.06
451.921	952.03
452.704	1010.41
453.486	966.37
454.268	1033.97
455.05	1020.65
455.833	993
456.615	1059.57
457.396	1057.52
458.178	1082.1
458.96	997.1
459.742	1046.26
460.523	1044.21
461.305	1064.69
462.086	1122.03
462.868	1244.88
463.649	1121.01
464.43	1060.59
465.211	1234.65
465.992	1108.72
466.773	1330.86
467.554	1223.39
468.335	1239.77
469.115	1241.81
469.896	1115.89
470.676	1081.07
471.457	1225.43
472.237	1255.12
473.018	1272.52
473.798	1225.43
474.578	1209.06
475.358	1155.82
476.138	1094.39
476.918	1112.82
477.697	1153.77
478.477	1283.78
479.257	1229.53
480.036	1216.22
480.816	1215.2
481.595	1321.65
482.374	1296.06
483.153	1379.98
483.932	1318.58
484.711	1278.66
485.49	1291.97
486.269	1274.57
487.048	1222.36
487.827	1368.73
488.605	1322.67
489.384	1312.44
490.162	1433.2
490.941	1517.09
491.719	1447.52
492.497	1458.78
493.275	1441.38
494.053	1474.12
494.831	1408.64
495.609	1450.59
496.387	1474.12
497.164	1471.05
497.942	1470.03
498.72	1422.96
499.497	1464.91
500.274	1371.8
501.052	1452.64
501.829	1520.16
502.606	1464.91
503.383	1507.88
504.16	1536.53
504.937	1529.37
505.714	1446.5
506.49	1599.95
507.267	1441.38
508.043	1570.29
508.82	1640.86
509.596	1503.79
510.373	1542.67
511.149	1536.53
511.925	1588.7
512.701	1621.43
513.477	1719.61
514.253	1638.82
515.029	1626.54
515.804	1634.73
516.58	1725.75
517.356	1667.46
518.131	1789.14
518.906	1640.86
519.682	1710.41
520.457	1710.41
521.232	1733.93
522.007	1765.62
522.782	1690.98
523.557	1671.55
524.332	1690.98
525.107	1831.06
525.881	1716.54
526.656	1670.52
527.43	1726.77
528.205	1736.99
528.979	1715.52
529.753	1747.22
530.527	1819.81
531.302	1728.81
532.076	1769.71
532.849	1743.13
533.623	1749.26
534.397	1704.27
535.171	1745.17
535.944	1810.61
536.718	1662.34
537.491	1856.62
538.265	1629.61
539.038	1740.06
539.811	1748.24
540.584	1731.88
541.357	1730.86
542.13	1827.99
542.903	1851.51
543.676	1736.99
544.449	1757.44
545.221	1763.58
545.994	1727.79
546.766	1753.35
547.539	1710.41
548.311	1783.01
549.083	1751.31
549.855	1630.64
550.627	1822.88
551.399	1770.74
552.171	1867.86
552.943	1832.08
553.715	1753.35
554.486	1802.43
555.258	1772.78
556.029	1747.22
556.801	1856.62
557.572	1792.21
558.343	1815.72
559.114	1927.15
559.886	1914.88
560.657	1860.71
561.427	1787.1
562.198	1840.26
562.969	1921.02
563.74	1888.31
564.51	1865.82
565.281	1997.67
566.051	1892.4
566.822	1890.35
567.592	1895.46
568.362	1882.17
569.132	1878.08
569.902	2082.49
570.672	1853.55
571.442	1910.79
572.212	1924.08
572.982	1880.13
573.751	1879.11
574.521	1868.88
575.29	1980.3
576.06	1889.33
576.829	1836.17
577.598	1823.9
578.367	1776.87
579.136	1809.59
579.905	1878.08
580.674	1902.62
581.443	1896.48
582.212	1823.9
582.981	1925.1
583.749	1824.93
584.518	1840.26
585.286	1942.48
586.054	1980.3
586.823	1866.84
587.591	1790.16
588.359	1925.1
589.127	1887.28
589.895	1961.9
590.663	1941.46
591.431	1875.02
592.198	1882.17
592.966	1904.66
593.734	1947.59
594.501	1832.08
595.268	1847.42
596.036	1935.33
596.803	1788.12
597.57	1795.28
598.337	1777.89
599.104	1779.94
599.871	1839.24
600.638	1843.33
601.405	1861.73
602.171	1751.31
602.938	1945.55
603.704	1707.34
604.471	1725.75
605.237	1859.68
606.004	1723.7
606.77	1798.34
607.536	1831.06
608.302	1820.84
609.068	1811.63
609.834	1734.95
610.599	1798.34
611.365	1720.63
612.131	1746.2
612.896	1817.77
613.662	1843.33
614.427	1787.1
615.193	1744.15
615.958	1754.38
616.723	1790.16
617.488	1641.89
618.253	1745.17
619.018	1748.24
619.783	1707.34
620.548	1805.5
621.312	1720.63
622.077	1674.61
622.842	1698.14
623.606	1869.91
624.37	1688.93
625.135	1729.84
625.899	1719.61
626.663	1652.11
627.427	1704.27
628.191	1668.48
628.955	1739.04
629.719	1631.66
630.483	1640.86
631.246	1542.67
632.01	1575.4
632.773	1662.34
633.537	1547.78
634.3	1570.29
635.063	1526.3
635.827	1454.68
636.59	1496.63
637.353	1561.08
638.116	1558.01
638.879	1440.36
639.641	1607.11
640.404	1527.32
641.167	1450.59
641.929	1493.56
642.692	1377.94
643.454	1403.52
644.216	1489.47
644.979	1472.08
645.741	1451.61
646.503	1496.63
647.265	1470.03
648.027	1505.84
648.789	1358.49
649.551	1407.61
650.312	1386.12
651.074	1364.63
651.835	1331.88
652.597	1366.68
653.358	1386.12
654.12	1352.35
654.881	1324.72
655.642	1338.03
656.403	1285.83
657.164	1367.7
657.925	1342.12
658.686	1357.47
659.447	1252.05
660.207	1277.64
660.968	1351.33
661.728	1389.19
662.489	1340.07
663.249	1331.88
664.01	1321.65
664.77	1381.01
665.53	1397.38
666.29	1291.97
667.05	1389.19
667.81	1325.74
668.57	1318.58
669.329	1334.96
670.089	1333.93
670.849	1350.31
671.608	1388.17
672.368	1275.59
673.127	1383.05
673.886	1303.23
674.646	1269.45
675.405	1343.14
676.164	1370.77
676.923	1364.63
677.682	1438.31
678.44	1345.19
679.199	1271.5
679.958	1524.25
680.717	1331.88
681.475	1266.38
682.233	1309.37
682.992	1263.31
683.75	1320.63
684.508	1349.28
685.266	1242.84
686.024	1326.77
686.782	1260.24
687.54	1331.88
688.298	1291.97
689.056	1338.03
689.814	1166.06
690.571	1259.21
691.329	1208.03
692.086	1190.63
692.843	1159.91
693.601	1196.77
694.358	1204.96
695.115	1101.55
695.872	1103.6
696.629	1052.4
697.386	1179.37
698.143	1203.94
698.9	1065.71
699.656	1060.59
700.413	1102.58
701.169	1159.91
701.926	1087.22
702.682	1101.55
703.438	1069.81
704.195	1189.6
704.951	1001.2
705.707	987.88
706.463	1008.37
707.219	1045.23
707.974	995.05
708.73	958.18
709.486	1022.7
710.241	1053.43
710.997	1028.85
711.752	1066.74
712.508	1058.55
713.263	1003.24
714.018	1020.65
714.773	1018.61
715.528	1124.08
716.283	1045.23
717.038	929.5
717.793	966.37
718.548	937.69
719.303	951.01
720.057	893.65
720.812	880.33
721.566	818.86
722.321	893.65
723.075	860.87
723.829	907.99
724.583	841.4
725.337	840.38
726.091	922.33
726.845	869.06
727.599	779.93
728.353	848.57
729.106	789.15
729.86	933.6
730.614	774.81
731.367	6269.4
732.12	832.18
732.874	777.88
733.627	856.77
734.38	851.65
735.133	837.3
735.886	773.78
736.639	775.83
737.392	819.89
738.145	724.6
738.897	869.06
739.65	799.4
740.403	808.62
741.155	809.64
741.907	805.54
742.66	847.55
743.412	655.94
744.164	790.18
744.916	637.49
745.668	682.58
746.42	763.54
747.172	653.89
747.924	611.86
748.676	540.11
749.427	591.37
750.179	634.41
750.93	659.01
751.682	543.19
752.433	640.56
753.184	687.71
753.935	573.94
754.687	539.09
755.438	648.76
756.189	596.49
756.939	558.56
757.69	552.41
758.441	638.51
759.192	598.54
759.942	654.91
760.693	646.71
761.443	611.86
762.194	548.31
762.944	530.89
763.694	634.41
764.444	575.99
765.194	641.59
765.944	621.09
766.694	637.49
767.444	684.63
768.194	661.06
768.943	545.24
769.693	652.86
770.443	618.01
771.192	641.59
771.941	508.33
772.691	634.41
773.44	600.59
774.189	671.31
774.938	622.11
775.687	586.24
776.436	624.16
777.185	648.76
777.934	558.56
778.683	596.49
779.431	593.42
780.18	666.18
780.928	588.29
781.677	603.66
782.425	630.31
783.173	646.71
783.922	645.69
784.67	706.15
785.418	669.26
786.166	715.37
786.914	544.21
787.661	625.19
788.409	593.42
789.157	600.59
789.904	587.27
790.652	670.28
791.399	632.36
792.147	633.39
792.894	666.18
793.641	607.76
794.388	5280.3
795.136	639.54
795.883	569.84
796.629	663.11
797.376	514.48
798.123	554.46
798.87	525.76
799.616	573.94
800.363	711.28
801.109	709.23
801.856	656.96
802.602	480.65
803.349	702.05
804.095	731.77
804.841	619.04
805.587	630.31
806.333	626.21
807.079	650.81
807.825	616.99
808.57	610.84
809.316	707.18
810.062	637.49
810.807	657.99
811.553	743.04
812.298	680.53
813.043	626.21
813.788	702.05
814.534	619.04
815.279	697.95
816.024	640.56
816.769	631.34
817.514	657.99
818.258	634.41
819.003	708.2
819.748	15354.75
820.492	623.14
821.237	4740.28
821.981	593.42
822.726	708.2
823.47	700
824.214	701.03
824.958	642.61
825.702	649.79
826.446	664.13
827.19	666.18
827.934	720.5
828.678	647.74
829.421	737.92
830.165	660.04
830.909	639.54
831.652	623.14
832.395	691.8
833.139	702.05
833.882	798.37
834.625	633.39
835.368	633.39
836.111	573.94
836.854	616.99
837.597	656.96
838.34	663.11
839.083	650.81
839.825	693.85
840.568	553.44
841.311	639.54
842.053	691.8
842.795	566.76
843.538	614.94
844.28	558.56
845.022	551.39
845.764	753.29
846.506	533.96
847.248	588.29
847.99	655.94
848.732	645.69
849.474	597.52
850.215	534.99
850.957	488.86
851.698	573.94
852.44	664.13
853.181	572.91
853.922	693.85
854.664	598.54
855.405	708.2
856.146	526.79
856.887	601.62
857.628	683.61
858.369	520.64
859.109	684.63
859.85	577.02
860.591	687.71
861.331	546.26
862.072	504.23
862.812	486.81
863.553	552.41
864.293	676.43
865.033	582.14
865.773	616.99
866.513	534.99
867.253	537.04
867.993	575.99
868.733	602.64
869.473	640.56
870.213	667.21
870.952	527.81
871.692	597.52
872.431	551.39
873.171	594.44
873.91	566.76
874.649	498.08
875.388	602.64
876.128	583.17
876.867	526.79
877.606	594.44
878.345	588.29
879.083	552.41
879.822	528.84
880.561	608.79
881.299	580.09
882.038	571.89
882.777	633.39
883.515	677.46
884.253	7895.79
884.992	611.86
885.73	584.19
886.468	593.42
887.206	730.75
887.944	644.66
888.682	649.79
889.42	598.54
890.157	618.01
890.895	557.54
891.633	1280.71
892.37	605.71
893.108	624.16
893.845	625.19
894.583	614.94
895.32	523.71
896.057	541.14
896.794	616.99
897.531	648.76
898.268	575.99
899.005	556.51
899.742	606.74
900.479	577.02
901.215	593.42
901.952	573.94
902.689	526.79
903.425	500.13
904.162	519.61
904.898	608.79
905.634	678.48
906.37	613.91
907.106	518.59
907.843	606.74
908.579	586.24
909.314	454
910.05	583.17
910.786	580.09
911.522	511.41
912.257	643.64
912.993	592.39
913.728	556.51
914.464	584.19
915.199	552.41
915.935	518.59
916.67	563.69
917.405	619.04
918.14	638.51
918.875	625.19
919.61	671.31
920.345	679.51
921.08	690.78
921.814	599.57
922.549	542.16
923.284	821.94
924.018	554.46
924.752	685.66
925.487	602.64
926.221	629.29
926.955	595.47
927.69	519.61
928.424	601.62
929.158	631.34
929.892	560.61
930.625	616.99
931.359	712.3
932.093	632.36
932.827	565.74
933.56	587.27
934.294	512.43
935.027	598.54
935.761	632.36
936.494	575.99
937.227	558.56
937.96	642.61
938.693	647.74
939.426	539.09
940.159	687.71
940.892	612.89
941.625	667.21
942.358	649.79
943.091	584.19
943.823	538.06
944.556	505.26
945.288	564.71
946.021	624.16
946.753	561.64
947.485	644.66
948.217	593.42
948.95	610.84
949.682	524.74
950.414	543.19
951.146	586.24
951.877	573.94
952.609	592.39
953.341	610.84
954.073	682.58
954.804	605.71
955.536	588.29
956.267	628.26
956.998	556.51
957.73	550.36
958.461	552.41
959.192	529.86
959.923	671.31
960.654	605.71
961.385	564.71
962.116	603.66
962.847	569.84
963.578	589.32
964.308	588.29
965.039	512.43
965.769	599.57
966.5	608.79
967.23	567.79
967.961	598.54
968.691	642.61
969.421	514.48
970.151	634.41
970.881	528.84
971.611	665.16
972.341	584.19
973.071	655.94
973.801	680.53
974.53	542.16
975.26	557.54
975.99	596.49
976.719	651.84
977.448	574.97
978.178	579.07
978.907	643.64
979.636	528.84
980.365	655.94
981.095	673.36
981.824	656.96
982.553	598.54
983.281	560.61
984.01	-2.44
984.739	-28.09
985.468	-44.51
986.196	-78.37
986.925	819.89
987.653	611.86
988.382	696.93
989.11	642.61
989.838	656.96
990.566	703.08
991.295	571.89
992.023	665.16
992.751	690.78
993.478	572.91
994.206	643.64
994.934	597.52
995.662	-3.46
996.389	-51.69
997.117	127.86
997.845	80.67
