Data from White_Bg_QEPB07591_00009.txt Node
Date: Thu Aug 22 15:27:32 EDT 2019
User: wcc
Spectrometer: QEPB0759
Trigger mode: 0
Integration Time (sec): 1.749000E0
Scans to average: 1
Electric dark correction enabled: true
Nonlinearity correction enabled: true
Boxcar width: 0
XAxis mode: Wavelengths
Number of Pixels in Spectrum: 1044
>>>>>Begin Spectral Data<<<<<
197.938	627.24
198.749	615.96
199.559	561.64
200.369	570.86
201.179	597.52
201.988	596.49
202.798	710.25
203.608	566.76
204.417	592.39
205.227	553.44
206.036	626.21
206.846	632.36
207.655	661.06
208.464	634.41
209.273	663.11
210.082	561.64
210.891	583.17
211.7	575.99
212.508	572.91
213.317	552.41
214.125	527.81
214.934	562.66
215.742	566.76
216.55	557.54
217.359	531.91
218.167	562.66
218.975	654.91
219.782	553.44
220.59	537.04
221.398	526.79
222.206	715.37
223.013	605.71
223.82	529.86
224.628	561.64
225.435	572.91
226.242	635.44
227.049	629.29
227.856	571.89
228.663	607.76
229.47	583.17
230.277	595.47
231.083	574.97
231.89	561.64
232.696	614.94
233.502	571.89
234.309	561.64
235.115	629.29
235.921	597.52
236.727	516.54
237.533	645.69
238.339	627.24
239.144	602.64
239.95	728.7
240.756	620.06
241.561	591.37
242.366	542.16
243.172	606.74
243.977	672.33
244.782	618.01
245.587	628.26
246.392	640.56
247.197	524.74
248.001	542.16
248.806	568.81
249.611	563.69
250.415	612.89
251.219	591.37
252.024	624.16
252.828	553.44
253.632	562.66
254.436	553.44
255.24	641.59
256.044	660.04
256.848	567.79
257.651	537.04
258.455	595.47
259.258	595.47
260.062	50072.95
260.865	648.76
261.668	621.09
262.471	548.31
263.274	641.59
264.077	533.96
264.88	588.29
265.683	539.09
266.486	583.17
267.288	648.76
268.091	526.79
268.893	580.09
269.696	620.06
270.498	604.69
271.3	600.59
272.102	675.41
272.904	587.27
273.706	596.49
274.508	589.32
275.309	619.04
276.111	623.14
276.913	523.71
277.714	514.48
278.515	555.49
279.317	647.74
280.118	537.04
280.919	599.57
281.72	590.34
282.521	624.16
283.322	552.41
284.122	610.84
284.923	630.31
285.724	574.97
286.524	578.04
287.325	689.76
288.125	530.89
288.925	582.14
289.725	605.71
290.525	677.46
291.325	591.37
292.125	608.79
292.925	646.71
293.724	538.06
294.524	517.56
295.324	541.14
296.123	584.19
296.922	578.04
297.722	841.4
298.521	606.74
299.32	709.23
300.119	520.64
300.918	605.71
301.716	711.28
302.515	588.29
303.314	669.26
304.112	575.99
304.911	681.56
305.709	582.14
306.507	646.71
307.306	588.29
308.104	581.12
308.902	599.57
309.7	598.54
310.498	649.79
311.295	501.16
312.093	649.79
312.891	689.76
313.688	644.66
314.485	602.64
315.283	711.28
316.08	627.24
316.877	578.04
317.674	611.86
318.471	497.06
319.268	567.79
320.065	627.24
320.862	632.36
321.658	588.29
322.455	656.96
323.251	548.31
324.047	553.44
324.844	710.25
325.64	538.06
326.436	593.42
327.232	583.17
328.028	586.24
328.824	539.09
329.62	638.51
330.415	732.79
331.211	625.19
332.006	593.42
332.802	672.33
333.597	586.24
334.392	671.31
335.187	627.24
335.982	554.46
336.777	631.34
337.572	579.07
338.367	634.41
339.162	669.26
339.956	596.49
340.751	623.14
341.545	649.79
342.34	649.79
343.134	546.26
343.928	659.01
344.722	660.04
345.516	571.89
346.31	566.76
347.104	619.04
347.898	606.74
348.691	602.64
349.485	514.48
350.278	635.44
351.072	715.37
351.865	6737.92
352.658	605.71
353.452	672.33
354.245	568.81
355.038	634.41
355.83	585.22
356.623	579.07
357.416	564.71
358.209	591.37
359.001	562.66
359.794	621.09
360.586	637.49
361.378	657.99
362.17	580.09
362.963	529.86
363.755	680.53
364.546	522.69
365.338	622.11
366.13	628.26
366.922	606.74
367.713	581.12
368.505	589.32
369.296	586.24
370.088	495.01
370.879	545.24
371.67	587.27
372.461	539.09
373.252	588.29
374.043	678.48
374.834	488.86
375.625	614.94
376.415	651.84
377.206	622.11
377.996	575.99
378.787	743.04
379.577	514.48
380.367	490.91
381.157	608.79
381.947	564.71
382.737	619.04
383.527	604.69
384.317	688.73
385.107	596.49
385.896	655.94
386.686	610.84
387.475	641.59
388.265	572.91
389.054	837.3
389.843	571.89
390.632	591.37
391.421	620.06
392.21	683.61
392.999	557.54
393.788	630.31
394.576	640.56
395.365	619.04
396.154	597.52
396.942	558.56
397.73	591.37
398.519	610.84
399.307	614.94
400.095	598.54
400.883	682.58
401.671	601.62
402.459	624.16
403.246	551.39
404.034	582.14
404.822	563.69
405.609	659.01
406.396	684.63
407.184	522.69
407.971	637.49
408.758	637.49
409.545	456.05
410.332	636.46
411.119	651.84
411.906	539.09
412.693	637.49
413.479	637.49
414.266	573.94
415.052	641.59
415.839	595.47
416.625	559.59
417.411	626.21
418.197	669.26
418.983	693.85
419.769	645.69
420.555	597.52
421.341	601.62
422.127	601.62
422.912	583.17
423.698	672.33
424.483	566.76
425.269	572.91
426.054	512.43
426.839	615.96
427.624	554.46
428.409	567.79
429.194	603.66
429.979	636.46
430.764	630.31
431.549	609.81
432.333	575.99
433.118	511.41
433.902	624.16
434.687	563.69
435.471	611.86
436.255	620.06
437.039	587.27
437.823	595.47
438.607	583.17
439.391	599.57
440.175	609.81
440.958	560.61
441.742	596.49
442.526	527.81
443.309	599.57
444.092	670.28
444.876	599.57
445.659	578.04
446.442	672.33
447.225	649.79
448.008	665.16
448.791	659.01
449.573	703.08
450.356	680.53
451.139	647.74
451.921	562.66
452.704	635.44
453.486	584.19
454.268	636.46
455.05	628.26
455.833	584.19
456.615	633.39
457.396	595.47
458.178	641.59
458.96	514.48
459.742	586.24
460.523	568.81
461.305	580.09
462.086	624.16
462.868	715.37
463.649	601.62
464.43	568.81
465.211	693.85
465.992	550.36
466.773	726.65
467.554	594.44
468.335	627.24
469.115	626.21
469.896	530.89
470.676	493.98
471.457	611.86
472.237	616.99
473.018	604.69
473.798	583.17
474.578	632.36
475.358	583.17
476.138	527.81
476.918	530.89
477.697	571.89
478.477	675.41
479.257	607.76
480.036	561.64
480.816	529.86
481.595	624.16
482.374	594.44
483.153	655.94
483.932	602.64
484.711	594.44
485.49	613.91
486.269	555.49
487.048	508.33
487.827	640.56
488.605	578.04
489.384	559.59
490.162	616.99
490.941	678.48
491.719	547.29
492.497	578.04
493.275	560.61
494.053	622.11
494.831	548.31
495.609	603.66
496.387	628.26
497.164	633.39
497.942	610.84
498.72	571.89
499.497	606.74
500.274	509.36
501.052	594.44
501.829	631.34
502.606	559.59
503.383	597.52
504.16	644.66
504.937	614.94
505.714	543.19
506.49	674.38
507.267	517.56
508.043	605.71
508.82	671.31
509.596	519.61
510.373	559.59
511.149	525.76
511.925	560.61
512.701	606.74
513.477	664.13
514.253	589.32
515.029	587.27
515.804	588.29
516.58	660.04
517.356	582.14
518.131	696.93
518.906	547.29
519.682	609.81
520.457	587.27
521.232	605.71
522.007	624.16
522.782	562.66
523.557	533.96
524.332	541.14
525.107	676.43
525.881	559.59
526.656	500.13
527.43	541.14
528.205	577.02
528.979	537.04
529.753	570.86
530.527	668.23
531.302	559.59
532.076	602.64
532.849	579.07
533.623	583.17
534.397	548.31
535.171	590.34
535.944	645.69
536.718	514.48
537.491	698.98
538.265	489.88
539.038	612.89
539.811	605.71
540.584	580.09
541.357	568.81
542.13	682.58
542.903	697.95
543.676	611.86
544.449	589.32
545.221	623.14
545.994	569.84
546.766	607.76
547.539	559.59
548.311	625.19
549.083	593.42
549.855	459.12
550.627	647.74
551.399	599.57
552.171	685.66
552.943	628.26
553.715	546.26
554.486	591.37
555.258	539.09
556.029	531.91
556.801	623.14
557.572	517.56
558.343	567.79
559.114	643.64
559.886	632.36
560.657	574.97
561.427	504.23
562.198	547.29
562.969	623.14
563.74	583.17
564.51	542.16
565.281	689.76
566.051	559.59
566.822	563.69
567.592	573.94
568.362	575.99
569.132	562.66
569.902	750.21
570.672	527.81
571.442	621.09
572.212	605.71
572.982	592.39
573.751	619.04
574.521	597.52
575.29	706.15
576.06	635.44
576.829	593.42
577.598	586.24
578.367	530.89
579.136	556.51
579.905	605.71
580.674	672.33
581.443	628.26
582.212	560.61
582.981	659.01
583.749	573.94
584.518	583.17
585.286	673.36
586.054	725.62
586.823	621.09
587.591	543.19
588.359	650.81
589.127	616.99
589.895	675.41
590.663	676.43
591.431	632.36
592.198	639.54
592.966	646.71
593.734	693.85
594.501	592.39
595.268	604.69
596.036	707.18
596.803	584.19
597.57	588.29
598.337	567.79
599.104	558.56
599.871	640.56
600.638	646.71
601.405	662.08
602.171	556.51
602.938	757.39
603.704	540.11
604.471	560.61
605.237	685.66
606.004	581.12
606.77	649.79
607.536	689.76
608.302	666.18
609.068	657.99
609.834	602.64
610.599	655.94
611.365	551.39
612.131	599.57
612.896	660.04
613.662	686.68
614.427	647.74
615.193	609.81
615.958	613.91
616.723	637.49
617.488	500.13
618.253	605.71
619.018	605.71
619.783	565.74
620.548	674.38
621.312	593.42
622.077	554.46
622.842	624.16
623.606	743.04
624.37	599.57
625.135	656.96
625.899	638.51
626.663	580.09
627.427	648.76
628.191	630.31
628.955	694.88
629.719	587.27
630.483	612.89
631.246	522.69
632.01	572.91
632.773	694.88
633.537	559.59
634.3	604.69
635.063	563.69
635.827	518.59
636.59	572.91
637.353	646.71
638.116	646.71
638.879	524.74
639.641	711.28
640.404	632.36
641.167	596.49
641.929	654.91
642.692	542.16
643.454	572.91
644.216	640.56
644.979	639.54
645.741	629.29
646.503	673.36
647.265	676.43
648.027	705.13
648.789	561.64
649.551	610.84
650.312	598.54
651.074	589.32
651.835	563.69
652.597	618.01
653.358	631.34
654.12	602.64
654.881	603.66
655.642	603.66
656.403	574.97
657.164	639.54
657.925	611.86
658.686	651.84
659.447	544.21
660.207	560.61
660.968	633.39
661.728	688.73
662.489	622.11
663.249	612.89
664.01	582.14
664.77	659.01
665.53	660.04
666.29	551.39
667.05	659.01
667.81	591.37
668.57	573.94
669.329	572.91
670.089	571.89
670.849	609.81
671.608	643.64
672.368	523.71
673.127	651.84
673.886	575.99
674.646	534.99
675.405	598.54
676.164	643.64
676.923	632.36
677.682	708.2
678.44	624.16
679.199	550.36
679.958	804.52
680.717	607.76
681.475	555.49
682.233	584.19
682.992	514.48
683.75	584.19
684.508	645.69
685.266	548.31
686.024	643.64
686.782	607.76
687.54	649.79
688.298	647.74
689.056	681.56
689.814	526.79
690.571	630.31
691.329	603.66
692.086	579.07
692.843	567.79
693.601	635.44
694.358	663.11
695.115	553.44
695.872	568.81
696.629	539.09
697.386	664.13
698.143	668.23
698.9	544.21
699.656	563.69
700.413	603.66
701.169	650.81
701.926	578.04
702.682	612.89
703.438	581.12
704.195	701.03
704.951	510.38
705.707	521.66
706.463	542.16
707.219	571.89
707.974	531.91
708.73	491.93
709.486	567.79
710.241	586.24
710.997	578.04
711.752	599.57
712.508	595.47
713.263	583.17
714.018	585.22
714.773	593.42
715.528	720.5
716.283	648.76
717.038	557.54
717.793	607.76
718.548	585.22
719.303	623.14
720.057	568.81
720.812	558.56
721.566	522.69
722.321	591.37
723.075	584.19
723.829	632.36
724.583	569.84
725.337	598.54
726.091	671.31
726.845	622.11
727.599	515.51
728.353	610.84
729.106	545.24
729.86	702.05
730.614	540.11
731.367	6282.56
732.12	586.24
732.874	537.04
733.627	598.54
734.38	624.16
735.133	619.04
735.886	569.84
736.639	571.89
737.392	621.09
738.145	542.16
738.897	668.23
739.65	606.74
740.403	615.96
741.155	620.06
741.907	619.04
742.66	704.1
743.412	509.36
744.164	642.61
744.916	524.74
745.668	603.66
746.42	697.95
747.172	623.14
747.924	609.81
748.676	520.64
749.427	584.19
750.179	625.19
750.93	654.91
751.682	524.74
752.433	650.81
753.184	702.05
753.935	568.81
754.687	522.69
755.438	638.51
756.189	596.49
756.939	556.51
757.69	544.21
758.441	642.61
759.192	594.44
759.942	666.18
760.693	651.84
761.443	628.26
762.194	534.99
762.944	541.14
763.694	639.54
764.444	571.89
765.194	637.49
765.944	624.16
766.694	633.39
767.444	688.73
768.194	650.81
768.943	544.21
769.693	649.79
770.443	639.54
771.192	650.81
771.941	483.73
772.691	635.44
773.44	591.37
774.189	651.84
774.938	614.94
775.687	587.27
776.436	612.89
777.185	642.61
777.934	571.89
778.683	614.94
779.431	596.49
780.18	663.11
780.928	600.59
781.677	595.47
782.425	622.11
783.173	651.84
783.922	646.71
784.67	707.18
785.418	665.16
786.166	701.03
786.914	563.69
787.661	619.04
788.409	606.74
789.157	598.54
789.904	589.32
790.652	662.08
791.399	642.61
792.147	620.06
792.894	659.01
793.641	601.62
794.388	5258.99
795.136	630.31
795.883	565.74
796.629	664.13
797.376	529.86
798.123	569.84
798.87	518.59
799.616	564.71
800.363	709.23
801.109	709.23
801.856	651.84
802.602	482.7
803.349	691.8
804.095	737.92
804.841	619.04
805.587	618.01
806.333	625.19
807.079	654.91
807.825	628.26
808.57	620.06
809.316	704.1
810.062	636.46
810.807	660.04
811.553	739.97
812.298	671.31
813.043	621.09
813.788	701.03
814.534	623.14
815.279	697.95
816.024	631.34
816.769	622.11
817.514	654.91
818.258	635.44
819.003	706.15
819.748	15296.78
820.492	612.89
821.237	4695.59
821.981	602.64
822.726	702.05
823.47	710.25
824.214	688.73
824.958	639.54
825.702	649.79
826.446	668.23
827.19	672.33
827.934	726.65
828.678	651.84
829.421	722.55
830.165	649.79
830.909	623.14
831.652	619.04
832.395	693.85
833.139	685.66
833.882	785.05
834.625	630.31
835.368	618.01
836.111	575.99
836.854	622.11
837.597	659.01
838.34	677.46
839.083	680.53
839.825	671.31
840.568	542.16
841.311	639.54
842.053	695.9
842.795	560.61
843.538	615.96
844.28	570.86
845.022	538.06
845.764	762.51
846.506	547.29
847.248	579.07
847.99	638.51
848.732	646.71
849.474	589.32
850.215	525.76
850.957	503.21
851.698	572.91
852.44	659.01
853.181	585.22
853.922	695.9
854.664	600.59
855.405	714.35
856.146	538.06
856.887	596.49
857.628	674.38
858.369	511.41
859.109	683.61
859.85	579.07
860.591	663.11
861.331	548.31
862.072	504.23
862.812	491.93
863.553	561.64
864.293	680.53
865.033	573.94
865.773	604.69
866.513	516.54
867.253	549.34
867.993	566.76
868.733	593.42
869.473	644.66
870.213	676.43
870.952	527.81
871.692	597.52
872.431	553.44
873.171	593.42
873.91	563.69
874.649	486.81
875.388	610.84
876.128	589.32
876.867	514.48
877.606	599.57
878.345	575.99
879.083	552.41
879.822	542.16
880.561	615.96
881.299	586.24
882.038	582.14
882.777	639.54
883.515	681.56
884.253	7912.95
884.992	605.71
885.73	579.07
886.468	587.27
887.206	719.47
887.944	647.74
888.682	639.54
889.42	609.81
890.157	619.04
890.895	557.54
891.633	1284.8
892.37	613.91
893.108	634.41
893.845	610.84
894.583	603.66
895.32	526.79
896.057	543.19
896.794	608.79
897.531	662.08
898.268	575.99
899.005	550.36
899.742	587.27
900.479	584.19
901.215	600.59
901.952	584.19
902.689	532.94
903.425	506.28
904.162	525.76
904.898	611.86
905.634	679.51
906.37	607.76
907.106	504.23
907.843	624.16
908.579	590.34
909.314	458.1
910.05	573.94
910.786	569.84
911.522	512.43
912.257	643.64
912.993	588.29
913.728	559.59
914.464	561.64
915.199	537.04
915.935	506.28
916.67	564.71
917.405	624.16
918.14	622.11
918.875	607.76
919.61	685.66
920.345	668.23
921.08	691.8
921.814	599.57
922.549	528.84
923.284	820.91
924.018	563.69
924.752	676.43
925.487	611.86
926.221	639.54
926.955	579.07
927.69	534.99
928.424	580.09
929.158	623.14
929.892	564.71
930.625	613.91
931.359	702.05
932.093	631.34
932.827	563.69
933.56	572.91
934.294	507.31
935.027	606.74
935.761	662.08
936.494	581.12
937.227	559.59
937.96	639.54
938.693	648.76
939.426	532.94
940.159	687.71
940.892	612.89
941.625	679.51
942.358	646.71
943.091	582.14
943.823	532.94
944.556	511.41
945.288	551.39
946.021	614.94
946.753	559.59
947.485	639.54
948.217	590.34
948.95	607.76
949.682	532.94
950.414	539.09
951.146	589.32
951.877	560.61
952.609	595.47
953.341	622.11
954.073	690.78
954.804	607.76
955.536	573.94
956.267	645.69
956.998	540.11
957.73	540.11
958.461	532.94
959.192	525.76
959.923	666.18
960.654	612.89
961.385	566.76
962.116	592.39
962.847	574.97
963.578	589.32
964.308	586.24
965.039	508.33
965.769	608.79
966.5	615.96
967.23	567.79
967.961	602.64
968.691	647.74
969.421	511.41
970.151	638.51
970.881	529.86
971.611	665.16
972.341	583.17
973.071	652.86
973.801	663.11
974.53	557.54
975.26	562.66
975.99	602.64
976.719	642.61
977.448	566.76
978.178	568.81
978.907	607.76
979.636	533.96
980.365	653.89
981.095	682.58
981.824	643.64
982.553	580.09
983.281	556.51
984.01	8.85
984.739	-28.09
985.468	-37.33
986.196	-89.66
986.925	836.28
987.653	573.94
988.382	683.61
989.11	625.19
989.838	640.56
990.566	727.67
991.295	578.04
992.023	673.36
992.751	677.46
993.478	578.04
994.206	654.91
994.934	602.64
995.662	-13.72
996.389	-53.75
997.117	132.99
997.845	80.67
