Data from White_QEPB07591_00006.txt Node
Date: Thu Aug 22 15:26:36 EDT 2019
User: wcc
Spectrometer: QEPB0759
Trigger mode: 0
Integration Time (sec): 1.749000E0
Scans to average: 1
Electric dark correction enabled: true
Nonlinearity correction enabled: true
Boxcar width: 0
XAxis mode: Wavelengths
Number of Pixels in Spectrum: 1044
>>>>>Begin Spectral Data<<<<<
197.938	633.9
198.749	610.33
199.559	574.45
200.369	556
201.179	597
201.988	589.83
202.798	703.59
203.608	573.43
204.417	586.75
205.227	542.68
206.036	625.7
206.846	632.88
207.655	670.8
208.464	614.43
209.273	661.57
210.082	576.5
210.891	583.68
211.7	586.75
212.508	582.65
213.317	564.2
214.125	507.82
214.934	563.18
215.742	564.2
216.55	559.08
217.359	540.63
218.167	561.13
218.975	658.5
219.782	554.98
220.59	526.27
221.398	531.4
222.206	705.64
223.013	607.25
223.82	522.17
224.628	564.2
225.435	581.63
226.242	626.73
227.049	630.83
227.856	546.78
228.663	611.35
229.47	591.88
230.277	595.98
231.083	575.48
231.89	557.03
232.696	617.5
233.502	566.25
234.309	560.1
235.115	620.58
235.921	594.95
236.727	520.12
237.533	648.25
238.339	626.73
239.144	607.25
239.95	728.18
240.756	606.23
241.561	615.45
242.366	547.8
243.172	616.48
243.977	674.9
244.782	611.35
245.587	616.48
246.392	635.95
247.197	517.05
248.001	523.2
248.806	570.35
249.611	566.25
250.415	610.33
251.219	580.6
252.024	592.9
252.828	570.35
253.632	563.18
254.436	551.9
255.24	645.17
256.044	657.47
256.848	580.6
257.651	522.17
258.455	589.83
259.258	586.75
260.062	51623.84
260.865	646.2
261.668	620.58
262.471	545.75
263.274	630.83
264.077	539.6
264.88	600.08
265.683	535.5
266.486	586.75
267.288	657.47
268.091	533.45
268.893	587.78
269.696	615.45
270.498	611.35
271.3	594.95
272.102	657.47
272.904	591.88
273.706	577.53
274.508	586.75
275.309	620.58
276.111	608.28
276.913	527.3
277.714	492.44
278.515	563.18
279.317	652.35
280.118	529.35
280.919	599.05
281.72	581.63
282.521	622.63
283.322	541.65
284.122	608.28
284.923	630.83
285.724	589.83
286.524	566.25
287.325	697.44
288.125	530.37
288.925	570.35
289.725	609.3
290.525	684.12
291.325	588.8
292.125	617.5
292.925	639.03
293.724	535.5
294.524	516.02
295.324	542.68
296.123	604.18
296.922	580.6
297.722	833.72
298.521	592.9
299.32	702.56
300.119	509.87
300.918	602.13
301.716	706.66
302.515	587.78
303.314	665.67
304.112	573.43
304.911	690.27
305.709	589.83
306.507	649.27
307.306	593.93
308.104	581.63
308.902	582.65
309.7	588.8
310.498	645.17
311.295	509.87
312.093	645.17
312.891	683.09
313.688	638
314.485	601.1
315.283	713.84
316.08	612.38
316.877	580.6
317.674	593.93
318.471	484.24
319.268	564.2
320.065	643.12
320.862	622.63
321.658	587.78
322.455	651.32
323.251	550.88
324.047	550.88
324.844	700.52
325.64	521.15
326.436	593.93
327.232	573.43
328.028	577.53
328.824	534.47
329.62	642.1
330.415	709.74
331.211	614.43
332.006	593.93
332.802	651.32
333.597	591.88
334.392	648.25
335.187	611.35
335.982	556
336.777	627.75
337.572	583.68
338.367	615.45
339.162	659.52
339.956	610.33
340.751	599.05
341.545	656.45
342.34	645.17
343.134	549.85
343.928	653.37
344.722	659.52
345.516	549.85
346.31	567.28
347.104	598.03
347.898	587.78
348.691	597
349.485	518.07
350.278	624.68
351.072	701.54
351.865	7206.52
352.658	614.43
353.452	687.19
354.245	579.58
355.038	636.98
355.83	588.8
356.623	564.2
357.416	576.5
358.209	577.53
359.001	552.93
359.794	597
360.586	626.73
361.378	666.7
362.17	583.68
362.963	534.47
363.755	688.22
364.546	513.97
365.338	621.6
366.13	639.03
366.922	607.25
367.713	582.65
368.505	597
369.296	568.3
370.088	483.22
370.879	540.63
371.67	589.83
372.461	552.93
373.252	589.83
374.043	673.87
374.834	488.34
375.625	627.75
376.415	656.45
377.206	623.65
377.996	582.65
378.787	695.39
379.577	520.12
380.367	489.37
381.157	615.45
381.947	582.65
382.737	616.48
383.527	615.45
384.317	677.97
385.107	579.58
385.896	650.3
386.686	612.38
387.475	649.27
388.265	587.78
389.054	846.01
389.843	601.1
390.632	622.63
391.421	639.03
392.21	706.66
392.999	579.58
393.788	652.35
394.576	671.82
395.365	642.1
396.154	627.75
396.942	606.23
397.73	659.52
398.519	674.9
399.307	674.9
400.095	659.52
400.883	768.15
401.671	676.95
402.459	690.27
403.246	640.05
404.034	676.95
404.822	663.62
405.609	763.02
406.396	781.47
407.184	633.9
407.971	734.33
408.758	745.6
409.545	580.6
410.332	750.73
411.119	762
411.906	638
412.693	727.16
413.479	777.37
414.266	703.59
415.052	760.97
415.839	751.75
416.625	730.23
417.411	812.2
418.197	849.09
418.983	869.57
419.769	838.84
420.555	762
421.341	763.02
422.127	789.66
422.912	753.8
423.698	850.11
424.483	747.65
425.269	737.41
426.054	704.61
426.839	820.4
427.624	765.07
428.409	786.59
429.194	806.06
429.979	850.11
430.764	854.21
431.549	833.72
432.333	826.55
433.118	748.68
433.902	870.6
434.687	814.25
435.471	870.6
436.255	861.38
437.039	834.74
437.823	866.5
438.607	847.04
439.391	873.67
440.175	893.14
440.958	849.09
441.742	863.43
442.526	798.88
443.309	888.01
444.092	979.18
444.876	899.28
445.659	892.11
446.442	990.44
447.225	966.89
448.008	1022.19
448.791	1015.02
449.573	1112.3
450.356	1078.51
451.139	1043.7
451.921	951.52
452.704	1021.17
453.486	959.72
454.268	1039.6
455.05	1032.43
455.833	1004.78
456.615	1066.23
457.396	1046.77
458.178	1085.68
458.96	981.22
459.742	1066.23
460.523	1043.7
461.305	1058.03
462.086	1139.95
462.868	1216.73
463.649	1110.26
464.43	1047.79
465.211	1221.85
465.992	1109.23
466.773	1315
467.554	1227.99
468.335	1226.97
469.115	1249.49
469.896	1116.4
470.676	1069.3
471.457	1232.09
472.237	1270.99
473.018	1278.15
473.798	1212.64
474.578	1212.64
475.358	1150.19
476.138	1105.14
476.918	1100.02
477.697	1156.33
478.477	1275.08
479.257	1237.21
480.036	1232.09
480.816	1201.38
481.595	1327.28
482.374	1302.72
483.153	1367.19
483.932	1317.04
484.711	1302.72
485.49	1302.72
486.269	1274.06
487.048	1230.04
487.827	1356.96
488.605	1310.9
489.384	1309.88
490.162	1419.38
490.941	1517.6
491.719	1435.75
492.497	1470.54
493.275	1435.75
494.053	1469.52
494.831	1412.22
495.609	1456.22
496.387	1469.52
497.164	1469.52
497.942	1444.96
498.72	1432.68
499.497	1455.19
500.274	1373.33
501.052	1472.59
501.829	1522.72
502.606	1461.33
503.383	1504.3
504.16	1544.2
504.937	1561.59
505.714	1468.5
506.49	1615.81
507.267	1445.99
508.043	1567.73
508.82	1629.1
509.596	1506.35
510.373	1544.2
511.149	1518.63
511.925	1562.62
512.701	1619.9
513.477	1710.92
514.253	1646.49
515.029	1627.06
515.804	1636.26
516.58	1751.82
517.356	1677.17
518.131	1790.67
518.906	1641.38
519.682	1705.81
520.457	1707.85
521.232	1754.89
522.007	1749.78
522.782	1697.62
523.557	1696.6
524.332	1681.26
525.107	1859.17
525.881	1709.9
526.656	1683.31
527.43	1715.01
528.205	1765.11
528.979	1698.65
529.753	1735.46
530.527	1802.94
531.302	1725.23
532.076	1776.36
532.849	1734.44
533.623	1724.21
534.397	1689.44
535.171	1753.87
535.944	1820.32
536.718	1667.97
537.491	1846.91
538.265	1629.1
539.038	1746.71
539.811	1761.02
540.584	1745.69
541.357	1733.42
542.13	1860.2
542.903	1861.22
543.676	1749.78
544.449	1754.89
545.221	1775.34
545.994	1705.81
546.766	1745.69
547.539	1716.03
548.311	1791.7
549.083	1757.96
549.855	1619.9
550.627	1830.55
551.399	1773.29
552.171	1880.64
552.943	1824.41
553.715	1736.48
554.486	1816.23
555.258	1757.96
556.029	1773.29
556.801	1872.46
557.572	1775.34
558.343	1822.37
559.114	1904.15
559.886	1906.2
560.657	1880.64
561.427	1806.01
562.198	1849.97
562.969	1922.55
563.74	1898.02
564.51	1861.22
565.281	2003.29
566.051	1882.68
566.822	1881.66
567.592	1889.84
568.362	1908.24
569.132	1875.53
569.902	2069.71
570.672	1832.59
571.442	1912.33
572.212	1905.17
572.982	1861.22
573.751	1885.75
574.521	1868.37
575.29	1983.87
576.06	1900.06
576.829	1868.37
577.598	1819.3
578.367	1773.29
579.136	1790.67
579.905	1846.91
580.674	1903.13
581.443	1892.91
582.212	1821.35
582.981	1890.86
583.749	1810.1
584.518	1852.02
585.286	1942.99
586.054	1984.9
586.823	1863.26
587.591	1794.76
588.359	1909.26
589.127	1894.95
589.895	1941.97
590.663	1956.28
591.431	1902.11
592.198	1888.82
592.966	1924.59
593.734	1950.15
594.501	1838.73
595.268	1840.77
596.036	1937.88
596.803	1806.01
597.57	1790.67
598.337	1786.59
599.104	1768.18
599.871	1825.44
600.638	1846.91
601.405	1868.37
602.171	1736.48
602.938	1921.53
603.704	1701.71
604.471	1710.92
605.237	1850.99
606.004	1780.45
606.77	1818.28
607.536	1847.93
608.302	1825.44
609.068	1808.06
609.834	1746.71
610.599	1814.19
611.365	1703.76
612.131	1746.71
612.896	1806.01
613.662	1864.28
614.427	1787.61
615.193	1752.84
615.958	1756.93
616.723	1785.56
617.488	1632.17
618.253	1748.75
619.018	1758.98
619.783	1695.58
620.548	1801.92
621.312	1724.21
622.077	1671.03
622.842	1752.84
623.606	1853.04
624.37	1691.49
625.135	1761.02
625.899	1703.76
626.663	1663.88
627.427	1703.76
628.191	1656.72
628.955	1740.57
629.719	1626.03
630.483	1642.4
631.246	1531.93
632.01	1564.66
632.773	1659.78
633.537	1538.06
634.3	1575.91
635.063	1528.86
635.827	1453.15
636.59	1508.4
637.353	1580.01
638.116	1570.8
638.879	1432.68
639.641	1608.65
640.404	1523.74
641.167	1471.56
641.929	1512.49
642.692	1382.54
643.454	1399.94
644.216	1487.93
644.979	1463.38
645.741	1459.29
646.503	1487.93
647.265	1479.75
648.027	1508.4
648.789	1364.12
649.551	1410.17
650.312	1374.36
651.074	1363.1
651.835	1348.77
652.597	1363.1
653.358	1386.64
654.12	1348.77
654.881	1306.81
655.642	1368.22
656.403	1307.83
657.164	1361.05
657.925	1335.47
658.686	1372.31
659.447	1259.73
660.207	1269.96
660.968	1338.54
661.728	1419.38
662.489	1337.51
663.249	1331.37
664.01	1291.46
664.77	1373.33
665.53	1371.29
666.29	1298.62
667.05	1379.47
667.81	1317.04
668.57	1307.83
669.329	1318.07
670.089	1322.16
670.849	1346.72
671.608	1392.78
672.368	1291.46
673.127	1374.36
673.886	1312.95
674.646	1286.34
675.405	1331.37
676.164	1363.1
676.923	1354.91
677.682	1435.75
678.44	1326.26
679.199	1254.61
679.958	1516.58
680.717	1321.14
681.475	1263.82
682.233	1320.12
682.992	1259.73
683.75	1315
684.508	1336.49
685.266	1234.14
686.024	1323.19
686.782	1276.1
687.54	1310.9
688.298	1282.24
689.056	1328.3
689.814	1162.47
690.571	1261.77
691.329	1211.61
692.086	1178.85
692.843	1156.33
693.601	1204.45
694.358	1225.95
695.115	1085.68
695.872	1093.87
696.629	1065.2
697.386	1208.54
698.143	1197.28
698.9	1059.06
699.656	1067.25
700.413	1096.95
701.169	1130.73
701.926	1083.63
702.682	1083.63
703.438	1061.11
704.195	1167.59
704.951	1015.02
705.707	1007.85
706.463	991.47
707.219	1036.53
707.974	1010.93
708.73	945.38
709.486	1036.53
710.241	1038.58
710.997	1028.34
711.752	1060.08
712.508	1035.5
713.263	1007.85
714.018	1026.29
714.773	1017.07
715.528	1127.66
716.283	1040.62
717.038	928.99
717.793	982.25
718.548	956.64
719.303	950.5
720.057	890.06
720.812	871.62
721.566	824.5
722.321	871.62
723.075	856.26
723.829	904.4
724.583	829.62
725.337	835.77
726.091	936.16
726.845	877.77
727.599	768.15
728.353	856.26
729.106	787.61
729.86	927.96
730.614	783.52
731.367	6299.27
732.12	838.84
732.874	768.15
733.627	843.96
734.38	865.48
735.133	831.67
735.886	778.39
736.639	762
737.392	815.28
738.145	741.5
738.897	854.21
739.65	788.64
740.403	806.06
741.155	806.06
741.907	796.84
742.66	868.55
743.412	643.12
744.164	769.17
744.916	638
745.668	674.9
746.42	763.02
747.172	647.22
747.924	623.65
748.676	526.27
749.427	572.4
750.179	622.63
750.93	651.32
751.682	535.5
752.433	651.32
753.184	691.29
753.935	557.03
754.687	528.32
755.438	635.95
756.189	588.8
756.939	548.83
757.69	546.78
758.441	636.98
759.192	590.85
759.942	658.5
760.693	659.52
761.443	626.73
762.194	562.15
762.944	537.55
763.694	649.27
764.444	558.05
765.194	623.65
765.944	630.83
766.694	643.12
767.444	677.97
768.194	645.17
768.943	554.98
769.693	644.15
770.443	619.55
771.192	662.6
771.941	492.44
772.691	636.98
773.44	595.98
774.189	664.65
774.938	606.23
775.687	591.88
776.436	617.5
777.185	626.73
777.934	566.25
778.683	604.18
779.431	595.98
780.18	658.5
780.928	574.45
781.677	605.2
782.425	625.7
783.173	655.42
783.922	654.4
784.67	706.66
785.418	661.57
786.166	700.52
786.914	559.08
787.661	614.43
788.409	606.23
789.157	601.1
789.904	588.8
790.652	675.92
791.399	634.93
792.147	621.6
792.894	663.62
793.641	604.18
794.388	5482.64
795.136	644.15
795.883	565.23
796.629	663.62
797.376	529.35
798.123	569.33
798.87	518.07
799.616	557.03
800.363	705.64
801.109	707.69
801.856	654.4
802.602	483.22
803.349	683.09
804.095	727.16
804.841	612.38
805.587	622.63
806.333	636.98
807.079	660.55
807.825	636.98
808.57	610.33
809.316	709.74
810.062	636.98
810.807	666.7
811.553	742.53
812.298	682.07
813.043	632.88
813.788	693.34
814.534	623.65
815.279	694.37
816.024	636.98
816.769	625.7
817.514	651.32
818.258	625.7
819.003	703.59
819.748	15344.26
820.492	609.3
821.237	4693.05
821.981	579.58
822.726	699.49
823.47	696.42
824.214	703.59
824.958	629.8
825.702	642.1
826.446	678.99
827.19	676.95
827.934	719.99
828.678	648.25
829.421	726.13
830.165	664.65
830.909	643.12
831.652	622.63
832.395	678.99
833.139	691.29
833.882	781.47
834.625	636.98
835.368	624.68
836.111	560.1
836.854	623.65
837.597	657.47
838.34	668.75
839.083	662.6
839.825	678.99
840.568	552.93
841.311	634.93
842.053	693.34
842.795	561.13
843.538	616.48
844.28	567.28
845.022	545.75
845.764	762
846.506	538.58
847.248	574.45
847.99	643.12
848.732	632.88
849.474	608.28
850.215	522.17
850.957	496.54
851.698	571.38
852.44	657.47
853.181	581.63
853.922	694.37
854.664	587.78
855.405	705.64
856.146	533.45
856.887	597
857.628	680.02
858.369	519.1
859.109	685.14
859.85	575.48
860.591	651.32
861.331	556
862.072	512.95
862.812	491.42
863.553	551.9
864.293	674.9
865.033	577.53
865.773	606.23
866.513	528.32
867.253	542.68
867.993	562.15
868.733	592.9
869.473	629.8
870.213	678.99
870.952	523.2
871.692	600.08
872.431	556
873.171	584.7
873.91	561.13
874.649	492.44
875.388	600.08
876.128	595.98
876.867	521.15
877.606	609.3
878.345	584.7
879.083	543.7
879.822	538.58
880.561	617.5
881.299	572.4
882.038	571.38
882.777	646.2
883.515	689.24
884.253	7909.42
884.992	598.03
885.73	581.63
886.468	584.7
887.206	719.99
887.944	645.17
888.682	642.1
889.42	595.98
890.157	613.4
890.895	541.65
891.633	1281.22
892.37	609.3
893.108	621.6
893.845	610.33
894.583	606.23
895.32	499.62
896.057	534.47
896.794	603.15
897.531	638
898.268	579.58
899.005	541.65
899.742	605.2
900.479	564.2
901.215	588.8
901.952	571.38
902.689	515
903.425	496.54
904.162	524.22
904.898	601.1
905.634	670.8
906.37	601.1
907.106	520.12
907.843	617.5
908.579	581.63
909.314	456.56
910.05	567.28
910.786	584.7
911.522	500.65
912.257	636.98
912.993	599.05
913.728	562.15
914.464	576.5
915.199	554.98
915.935	522.17
916.67	573.43
917.405	613.4
918.14	613.4
918.875	607.25
919.61	665.67
920.345	674.9
921.08	682.07
921.814	589.83
922.549	538.58
923.284	807.08
924.018	560.1
924.752	672.85
925.487	600.08
926.221	632.88
926.955	597
927.69	531.4
928.424	593.93
929.158	631.85
929.892	557.03
930.625	628.78
931.359	684.12
932.093	646.2
932.827	550.88
933.56	572.4
934.294	495.52
935.027	614.43
935.761	655.42
936.494	568.3
937.227	550.88
937.96	623.65
938.693	628.78
939.426	541.65
940.159	668.75
940.892	611.35
941.625	681.04
942.358	667.72
943.091	571.38
943.823	531.4
944.556	507.82
945.288	561.13
946.021	599.05
946.753	561.13
947.485	641.08
948.217	595.98
948.95	595.98
949.682	509.87
950.414	538.58
951.146	585.73
951.877	571.38
952.609	589.83
953.341	613.4
954.073	684.12
954.804	616.48
955.536	568.3
956.267	629.8
956.998	549.85
957.73	550.88
958.461	547.8
959.192	524.22
959.923	653.37
960.654	601.1
961.385	560.1
962.116	602.13
962.847	558.05
963.578	580.6
964.308	587.78
965.039	507.82
965.769	609.3
966.5	605.2
967.23	571.38
967.961	613.4
968.691	646.2
969.421	499.62
970.151	645.17
970.881	515
971.611	649.27
972.341	598.03
973.071	641.08
973.801	667.72
974.53	552.93
975.26	574.45
975.99	598.03
976.719	656.45
977.448	572.4
978.178	570.35
978.907	618.53
979.636	535.5
980.365	643.12
981.095	674.9
981.824	648.25
982.553	597
983.281	531.4
984.01	6.28
984.739	-23.47
985.468	-48.1
986.196	-86.07
986.925	819.38
987.653	585.73
988.382	703.59
989.11	633.9
989.838	642.1
990.566	714.86
991.295	580.6
992.023	665.67
992.751	692.32
993.478	574.45
994.206	639.03
994.934	595.98
995.662	-20.39
996.389	-47.07
997.117	135.56
997.845	83.24
