Data from White_QEPB07591_00010.txt Node
Date: Thu Aug 22 15:26:43 EDT 2019
User: wcc
Spectrometer: QEPB0759
Trigger mode: 0
Integration Time (sec): 1.749000E0
Scans to average: 1
Electric dark correction enabled: true
Nonlinearity correction enabled: true
Boxcar width: 0
XAxis mode: Wavelengths
Number of Pixels in Spectrum: 1044
>>>>>Begin Spectral Data<<<<<
197.938	620.96
198.749	612.76
199.559	576.89
200.369	566.64
201.179	602.51
201.988	583.04
202.798	714.22
203.608	565.61
204.417	583.04
205.227	536.91
206.036	624.04
206.846	647.61
207.655	670.16
208.464	645.56
209.273	653.76
210.082	575.86
210.891	570.74
211.7	594.31
212.508	570.74
213.317	547.16
214.125	505.13
214.934	568.69
215.742	577.91
216.55	554.34
217.359	545.11
218.167	564.59
218.975	649.66
219.782	561.51
220.59	556.39
221.398	526.66
222.206	715.25
223.013	613.79
223.82	535.88
224.628	559.46
225.435	596.36
226.242	638.38
227.049	618.91
227.856	560.49
228.663	616.86
229.47	591.24
230.277	601.49
231.083	583.04
231.89	574.84
232.696	616.86
233.502	568.69
234.309	560.49
235.115	615.84
235.921	604.56
236.727	520.51
237.533	657.86
238.339	636.33
239.144	615.84
239.95	731.64
240.756	617.89
241.561	610.71
242.366	556.39
243.172	629.16
243.977	667.08
244.782	617.89
245.587	630.19
246.392	638.38
247.197	524.61
248.001	532.81
248.806	575.86
249.611	561.51
250.415	611.74
251.219	579.96
252.024	624.04
252.828	553.31
253.632	561.51
254.436	549.21
255.24	650.68
256.044	652.73
256.848	577.91
257.651	532.81
258.455	597.39
259.258	596.36
260.062	50625.35
260.865	647.61
261.668	621.99
262.471	547.16
263.274	638.38
264.077	537.93
264.88	592.26
265.683	546.14
266.486	593.29
267.288	660.93
268.091	536.91
268.893	597.39
269.696	609.69
270.498	616.86
271.3	599.44
272.102	680.4
272.904	594.31
273.706	595.34
274.508	593.29
275.309	616.86
276.111	608.66
276.913	528.71
277.714	511.28
278.515	559.46
279.317	664.01
280.118	536.91
280.919	603.54
281.72	587.14
282.521	629.16
283.322	566.64
284.122	623.01
284.923	635.31
285.724	587.14
286.524	585.09
287.325	701.92
288.125	524.61
288.925	573.81
289.725	603.54
290.525	687.58
291.325	607.64
292.125	617.89
292.925	652.73
293.724	543.06
294.524	514.36
295.324	546.14
296.123	608.66
296.922	596.36
297.722	857.67
298.521	605.59
299.32	721.39
300.119	513.33
300.918	617.89
301.716	718.32
302.515	590.21
303.314	667.08
304.112	576.89
304.911	702.95
305.709	572.79
306.507	644.53
307.306	594.31
308.104	580.99
308.902	601.49
309.7	600.46
310.498	650.68
311.295	520.51
312.093	646.58
312.891	692.7
313.688	648.63
314.485	593.29
315.283	719.35
316.08	637.36
316.877	589.19
317.674	587.14
318.471	476.43
319.268	579.96
320.065	640.43
320.862	641.46
321.658	591.24
322.455	658.88
323.251	560.49
324.047	544.09
324.844	699.87
325.64	541.01
326.436	607.64
327.232	584.06
328.028	578.94
328.824	555.36
329.62	645.56
330.415	725.49
331.211	626.09
332.006	596.36
332.802	666.06
333.597	585.09
334.392	662.98
335.187	624.04
335.982	572.79
336.777	635.31
337.572	594.31
338.367	637.36
339.162	658.88
339.956	594.31
340.751	616.86
341.545	643.51
342.34	648.63
343.134	545.11
343.928	668.11
344.722	656.83
345.516	558.44
346.31	558.44
347.104	607.64
347.898	608.66
348.691	591.24
349.485	516.41
350.278	641.46
351.072	698.85
351.865	7208.92
352.658	613.79
353.452	686.55
354.245	584.06
355.038	646.58
355.83	606.61
356.623	577.91
357.416	575.86
358.209	580.99
359.001	561.51
359.794	628.14
360.586	633.26
361.378	657.86
362.17	580.99
362.963	536.91
363.755	683.48
364.546	527.68
365.338	636.33
366.13	647.61
366.922	613.79
367.713	593.29
368.505	590.21
369.296	576.89
370.088	498.98
370.879	551.26
371.67	605.59
372.461	553.31
373.252	598.41
374.043	669.13
374.834	508.21
375.625	641.46
376.415	657.86
377.206	625.06
377.996	584.06
378.787	710.12
379.577	531.78
380.367	497.95
381.157	619.94
381.947	577.91
382.737	612.76
383.527	628.14
384.317	701.92
385.107	601.49
385.896	668.11
386.686	620.96
387.475	643.51
388.265	594.31
389.054	855.62
389.843	613.79
390.632	629.16
391.421	624.04
392.21	695.78
392.999	580.99
393.788	641.46
394.576	691.68
395.365	665.03
396.154	635.31
396.942	612.76
397.73	655.81
398.519	684.5
399.307	680.4
400.095	674.25
400.883	776.73
401.671	681.43
402.459	689.63
403.246	643.51
404.034	674.25
404.822	664.01
405.609	770.58
406.396	792.1
407.184	621.99
407.971	752.14
408.758	738.81
409.545	573.81
410.332	757.26
411.119	760.33
411.906	638.38
412.693	765.46
413.479	774.68
414.266	708.07
415.052	767.51
415.839	759.31
416.625	725.49
417.411	801.32
418.197	837.18
418.983	883.28
419.769	835.13
420.555	772.63
421.341	790.05
422.127	782.87
422.912	761.36
423.698	852.54
424.483	753.16
425.269	741.89
426.054	689.63
426.839	835.13
427.624	763.41
428.409	784.92
429.194	813.61
429.979	845.37
430.764	845.37
431.549	851.52
432.333	849.47
433.118	769.55
433.902	872.01
434.687	821.81
435.471	863.81
436.255	874.06
437.039	843.32
437.823	860.74
438.607	840.25
439.391	877.13
440.175	875.08
440.958	861.76
441.742	864.84
442.526	810.54
443.309	898.64
444.092	958.05
444.876	896.59
445.659	892.5
446.442	998
447.225	985.71
448.008	1000.04
448.791	1024.62
449.573	1139.31
450.356	1085.04
451.139	1039.98
451.921	956
452.704	1015.41
453.486	980.58
454.268	1031.79
455.05	1014.38
455.833	1005.16
456.615	1080.95
457.396	1047.15
458.178	1092.21
458.96	978.54
459.742	1052.27
460.523	1030.77
461.305	1063.54
462.086	1116.78
462.868	1215.07
463.649	1116.78
464.43	1044.08
465.211	1220.19
465.992	1096.31
466.773	1327.66
467.554	1227.35
468.335	1243.73
469.115	1219.16
469.896	1129.07
470.676	1078.9
471.457	1220.19
472.237	1260.11
473.018	1281.61
473.798	1202.78
474.578	1218.14
475.358	1151.6
476.138	1096.31
476.918	1110.64
477.697	1157.74
478.477	1273.42
479.257	1234.52
480.036	1221.21
480.816	1205.86
481.595	1311.29
482.374	1300.03
483.153	1365.53
483.932	1312.31
484.711	1289.79
485.49	1295.93
486.269	1256.02
487.048	1241.68
487.827	1377.81
488.605	1296.96
489.384	1307.19
490.162	1401.35
490.941	1534.36
491.719	1451.49
492.497	1460.69
493.275	1450.46
494.053	1450.46
494.831	1405.44
495.609	1459.67
496.387	1469.9
497.164	1475.02
497.942	1464.79
498.72	1426.93
499.497	1463.76
500.274	1373.72
501.052	1479.11
501.829	1511.85
502.606	1462.74
503.383	1510.83
504.16	1549.7
504.937	1536.4
505.714	1448.42
506.49	1602.89
507.267	1452.51
508.043	1555.84
508.82	1615.17
509.596	1516.96
510.373	1533.33
511.149	1508.78
511.925	1574.25
512.701	1610.05
513.477	1677.55
514.253	1613.12
515.029	1615.17
515.804	1634.6
516.58	1736.87
517.356	1662.21
518.131	1784.92
518.906	1645.85
519.682	1703.12
520.457	1696.98
521.232	1726.64
522.007	1756.29
522.782	1701.08
523.557	1689.83
524.332	1675.51
525.107	1829.91
525.881	1715.39
526.656	1660.17
527.43	1709.26
528.205	1739.93
528.979	1699.03
529.753	1739.93
530.527	1806.39
531.302	1719.48
532.076	1767.54
532.849	1722.55
533.623	1741.98
534.397	1681.64
535.171	1734.82
535.944	1781.86
536.718	1672.44
537.491	1825.82
538.265	1632.55
539.038	1748.11
539.811	1756.29
540.584	1716.41
541.357	1711.3
542.13	1837.07
542.903	1847.29
543.676	1739.93
544.449	1728.69
545.221	1767.54
545.994	1726.64
546.766	1753.23
547.539	1699.03
548.311	1790.04
549.083	1739.93
549.855	1592.66
550.627	1815.6
551.399	1765.5
552.171	1855.47
552.943	1805.37
553.715	1748.11
554.486	1786.97
555.258	1759.36
556.029	1762.43
556.801	1877.96
557.572	1768.56
558.343	1809.46
559.114	1910.67
559.886	1901.47
560.657	1853.42
561.427	1790.04
562.198	1841.15
562.969	1915.78
563.74	1875.91
564.51	1864.67
565.281	1992.43
566.051	1874.89
566.822	1855.47
567.592	1904.53
568.362	1870.8
569.132	1876.93
569.902	2034.33
570.672	1821.73
571.442	1915.78
572.212	1923.96
572.982	1856.49
573.751	1882.05
574.521	1852.4
575.29	1966.88
576.06	1883.07
576.829	1850.36
577.598	1809.46
578.367	1773.68
579.136	1822.75
579.905	1861.6
580.674	1895.33
581.443	1881.02
582.212	1822.75
582.981	1884.09
583.749	1819.69
584.518	1844.22
585.286	1931.11
586.054	1958.71
586.823	1867.73
587.591	1798.22
588.359	1902.49
589.127	1849.33
589.895	1933.15
590.663	1935.2
591.431	1882.05
592.198	1892.27
592.966	1904.53
593.734	1923.96
594.501	1825.82
595.268	1849.33
596.036	1948.49
596.803	1783.9
597.57	1799.24
598.337	1785.95
599.104	1762.43
599.871	1844.22
600.638	1827.86
601.405	1859.56
602.171	1745.05
602.938	1900.45
603.704	1684.71
604.471	1723.57
605.237	1864.67
606.004	1744.02
606.77	1799.24
607.536	1822.75
608.302	1807.42
609.068	1809.46
609.834	1739.93
610.599	1795.15
611.365	1712.32
612.131	1732.78
612.896	1799.24
613.662	1839.11
614.427	1780.83
615.193	1750.16
615.958	1753.23
616.723	1772.65
617.488	1636.64
618.253	1744.02
619.018	1731.75
619.783	1691.87
620.548	1798.22
621.312	1711.3
622.077	1667.33
622.842	1703.12
623.606	1842.18
624.37	1726.64
625.135	1739.93
625.899	1711.3
626.663	1633.58
627.427	1686.76
628.191	1672.44
628.955	1744.02
629.719	1627.44
630.483	1628.46
631.246	1528.22
632.01	1590.62
632.773	1654.03
633.537	1532.31
634.3	1590.62
635.063	1524.13
635.827	1447.39
636.59	1492.41
637.353	1552.77
638.116	1543.56
638.879	1423.86
639.641	1588.57
640.404	1507.76
641.167	1458.65
641.929	1515.94
642.692	1372.69
643.454	1404.42
644.216	1479.11
644.979	1480.13
645.741	1444.32
646.503	1487.3
647.265	1462.74
648.027	1500.6
648.789	1354.27
649.551	1433.07
650.312	1366.55
651.074	1375.76
651.835	1334.83
652.597	1375.76
653.358	1386
654.12	1348.13
654.881	1312.31
655.642	1339.94
656.403	1295.93
657.164	1357.34
657.925	1310.26
658.686	1355.3
659.447	1247.83
660.207	1274.44
660.968	1354.27
661.728	1402.37
662.489	1328.69
663.249	1344.04
664.01	1285.7
664.77	1396.23
665.53	1377.81
666.29	1292.86
667.05	1376.79
667.81	1318.45
668.57	1310.26
669.329	1329.71
670.089	1307.19
670.849	1339.94
671.608	1381.9
672.368	1281.61
673.127	1380.88
673.886	1317.43
674.646	1271.37
675.405	1338.92
676.164	1346.08
676.923	1352.23
677.682	1423.86
678.44	1332.78
679.199	1263.18
679.958	1511.85
680.717	1322.55
681.475	1271.37
682.233	1311.29
682.992	1239.64
683.75	1326.64
684.508	1361.44
685.266	1244.76
686.024	1323.57
686.782	1257.04
687.54	1323.57
688.298	1304.12
689.056	1313.33
689.814	1159.79
690.571	1252.94
691.329	1206.88
692.086	1186.4
692.843	1157.74
693.601	1204.83
694.358	1227.35
695.115	1105.52
695.872	1091.19
696.629	1059.44
697.386	1196.64
698.143	1189.48
698.9	1054.32
699.656	1063.54
700.413	1095.28
701.169	1152.62
701.926	1078.9
702.682	1107.57
703.438	1057.39
704.195	1186.4
704.951	1008.24
705.707	994.92
706.463	1012.33
707.219	1043.06
707.974	1003.12
708.73	953.95
709.486	1019.5
710.241	1039.98
710.997	1026.67
711.752	1072.75
712.508	1051.25
713.263	1019.5
714.018	1011.31
714.773	1007.21
715.528	1113.71
716.283	1021.55
717.038	928.35
717.793	978.54
718.548	960.1
719.303	966.25
720.057	877.13
720.812	881.23
721.566	832.05
722.321	878.15
723.075	857.67
723.829	916.06
724.583	818.73
725.337	834.1
726.091	928.35
726.845	885.33
727.599	776.73
728.353	851.52
729.106	796.19
729.86	923.23
730.614	776.73
731.367	6438.32
732.12	842.3
732.874	780.83
733.627	846.4
734.38	861.76
735.133	821.81
735.886	776.73
736.639	779.8
737.392	823.86
738.145	733.69
738.897	850.49
739.65	799.27
740.403	818.73
741.155	811.56
741.907	808.49
742.66	858.69
743.412	651.71
744.164	786.97
744.916	631.21
745.668	687.58
746.42	755.21
747.172	643.51
747.924	619.94
748.676	542.04
749.427	587.14
750.179	635.31
750.93	665.03
751.682	533.83
752.433	652.73
753.184	698.85
753.935	565.61
754.687	547.16
755.438	621.99
756.189	590.21
756.939	558.44
757.69	543.06
758.441	655.81
759.192	600.46
759.942	658.88
760.693	646.58
761.443	619.94
762.194	550.24
762.944	541.01
763.694	646.58
764.444	546.14
765.194	643.51
765.944	634.29
766.694	641.46
767.444	672.21
768.194	652.73
768.943	561.51
769.693	653.76
770.443	615.84
771.192	666.06
771.941	507.18
772.691	640.43
773.44	598.41
774.189	661.96
774.938	617.89
775.687	572.79
776.436	625.06
777.185	638.38
777.934	559.46
778.683	620.96
779.431	606.61
780.18	655.81
780.928	595.34
781.677	598.41
782.425	634.29
783.173	666.06
783.922	638.38
784.67	712.17
785.418	670.16
786.166	703.97
786.914	556.39
787.661	617.89
788.409	613.79
789.157	599.44
789.904	595.34
790.652	684.5
791.399	648.63
792.147	625.06
792.894	662.98
793.641	601.49
794.388	5243.65
795.136	642.48
795.883	559.46
796.629	665.03
797.376	517.43
798.123	559.46
798.87	526.66
799.616	572.79
800.363	716.27
801.109	716.27
801.856	664.01
802.602	487.7
803.349	697.83
804.095	729.59
804.841	618.91
805.587	631.21
806.333	644.53
807.079	655.81
807.825	629.16
808.57	626.09
809.316	714.22
810.062	630.19
810.807	655.81
811.553	750.09
812.298	680.4
813.043	641.46
813.788	696.8
814.534	617.89
815.279	700.9
816.024	659.91
816.769	647.61
817.514	659.91
818.258	639.41
819.003	715.25
819.748	15464.57
820.492	625.06
821.237	4719.84
821.981	592.26
822.726	705
823.47	707.05
824.214	717.3
824.958	640.43
825.702	658.88
826.446	679.38
827.19	667.08
827.934	712.17
828.678	649.66
829.421	739.84
830.165	664.01
830.909	649.66
831.652	627.11
832.395	693.73
833.139	681.43
833.882	780.83
834.625	638.38
835.368	615.84
836.111	579.96
836.854	618.91
837.597	657.86
838.34	674.25
839.083	662.98
839.825	684.5
840.568	553.31
841.311	638.38
842.053	707.05
842.795	556.39
843.538	617.89
844.28	576.89
845.022	549.21
845.764	782.87
846.506	527.68
847.248	586.11
847.99	658.88
848.732	654.78
849.474	594.31
850.215	536.91
850.957	512.31
851.698	560.49
852.44	666.06
853.181	582.01
853.922	695.78
854.664	611.74
855.405	707.05
856.146	527.68
856.887	602.51
857.628	695.78
858.369	534.86
859.109	697.83
859.85	585.09
860.591	679.38
861.331	560.49
862.072	509.23
862.812	507.18
863.553	530.76
864.293	678.35
865.033	577.91
865.773	621.99
866.513	541.01
867.253	554.34
867.993	582.01
868.733	607.64
869.473	627.11
870.213	675.28
870.952	524.61
871.692	606.61
872.431	555.36
873.171	594.31
873.91	573.81
874.649	498.98
875.388	616.86
876.128	602.51
876.867	535.88
877.606	608.66
878.345	586.11
879.083	555.36
879.822	536.91
880.561	607.64
881.299	582.01
882.038	591.24
882.777	651.71
883.515	678.35
884.253	7907.78
884.992	612.76
885.73	580.99
886.468	594.31
887.206	723.44
887.944	660.93
888.682	661.96
889.42	601.49
890.157	628.14
890.895	550.24
891.633	1268.3
892.37	613.79
893.108	626.09
893.845	615.84
894.583	613.79
895.32	522.56
896.057	527.68
896.794	608.66
897.531	653.76
898.268	561.51
899.005	557.41
899.742	604.56
900.479	579.96
901.215	597.39
901.952	580.99
902.689	535.88
903.425	500
904.162	525.63
904.898	605.59
905.634	686.55
906.37	608.66
907.106	518.46
907.843	624.04
908.579	595.34
909.314	457.97
910.05	574.84
910.786	584.06
911.522	514.36
912.257	636.33
912.993	608.66
913.728	565.61
914.464	584.06
915.199	554.34
915.935	527.68
916.67	549.21
917.405	628.14
918.14	618.91
918.875	615.84
919.61	666.06
920.345	677.33
921.08	685.53
921.814	603.54
922.549	558.44
923.284	818.73
924.018	564.59
924.752	682.45
925.487	602.51
926.221	619.94
926.955	589.19
927.69	541.01
928.424	599.44
929.158	635.31
929.892	546.14
930.625	609.69
931.359	711.15
932.093	643.51
932.827	566.64
933.56	589.19
934.294	511.28
935.027	624.04
935.761	651.71
936.494	562.54
937.227	562.54
937.96	637.36
938.693	644.53
939.426	548.19
940.159	667.08
940.892	611.74
941.625	691.68
942.358	652.73
943.091	573.81
943.823	541.01
944.556	501.03
945.288	573.81
946.021	624.04
946.753	571.76
947.485	645.56
948.217	599.44
948.95	614.81
949.682	534.86
950.414	542.04
951.146	598.41
951.877	555.36
952.609	593.29
953.341	610.71
954.073	687.58
954.804	621.99
955.536	580.99
956.267	620.96
956.998	552.29
957.73	553.31
958.461	548.19
959.192	528.71
959.923	668.11
960.654	600.46
961.385	567.66
962.116	603.54
962.847	568.69
963.578	582.01
964.308	592.26
965.039	510.26
965.769	595.34
966.5	638.38
967.23	577.91
967.961	627.11
968.691	645.56
969.421	517.43
970.151	643.51
970.881	524.61
971.611	658.88
972.341	604.56
973.071	657.86
973.801	682.45
974.53	568.69
975.26	584.06
975.99	604.56
976.719	661.96
977.448	577.91
978.178	574.84
978.907	625.06
979.636	534.86
980.365	657.86
981.095	689.63
981.824	646.58
982.553	582.01
983.281	557.41
984.01	-1.54
984.739	-26.17
985.468	-41.56
986.196	-80.56
986.925	823.86
987.653	577.91
988.382	693.73
989.11	640.43
989.838	655.81
990.566	728.57
991.295	582.01
992.023	675.28
992.751	686.55
993.478	579.96
994.206	647.61
994.934	611.74
995.662	-8.72
996.389	-47.72
997.117	125.68
997.845	80.54
