Data from White_Bg_QEPB07591_00004.txt Node
Date: Thu Aug 22 15:27:23 EDT 2019
User: wcc
Spectrometer: QEPB0759
Trigger mode: 0
Integration Time (sec): 1.749000E0
Scans to average: 1
Electric dark correction enabled: true
Nonlinearity correction enabled: true
Boxcar width: 0
XAxis mode: Wavelengths
Number of Pixels in Spectrum: 1044
>>>>>Begin Spectral Data<<<<<
197.938	631.72
198.749	609.17
199.559	555.87
200.369	561
201.179	591.75
201.988	584.57
202.798	705.51
203.608	571.25
204.417	570.22
205.227	565.1
206.036	622.5
206.846	628.65
207.655	669.64
208.464	618.4
209.273	659.39
210.082	567.15
210.891	566.12
211.7	577.4
212.508	581.5
213.317	551.77
214.125	537.42
214.934	574.32
215.742	571.25
216.55	554.85
217.359	535.37
218.167	564.07
218.975	663.49
219.782	549.72
220.59	543.57
221.398	539.47
222.206	720.88
223.013	611.22
223.82	537.42
224.628	558.95
225.435	568.17
226.242	640.95
227.049	632.75
227.856	552.8
228.663	615.32
229.47	595.85
230.277	611.22
231.083	582.52
231.89	577.4
232.696	638.9
233.502	579.45
234.309	558.95
235.115	626.6
235.921	606.1
236.727	528.2
237.533	644.02
238.339	625.57
239.144	604.05
239.95	734.2
240.756	615.32
241.561	614.3
242.366	564.07
243.172	609.17
243.977	675.79
244.782	612.25
245.587	627.62
246.392	650.17
247.197	516.92
248.001	548.7
248.806	576.37
249.611	573.3
250.415	607.12
251.219	582.52
252.024	602
252.828	571.25
253.632	565.1
254.436	555.87
255.24	649.15
256.044	650.17
256.848	578.42
257.651	542.55
258.455	598.92
259.258	604.05
260.062	51605.54
260.865	665.54
261.668	622.5
262.471	549.72
263.274	634.8
264.077	561
264.88	598.92
265.683	544.6
266.486	583.55
267.288	668.62
268.091	530.25
268.893	597.9
269.696	620.45
270.498	607.12
271.3	594.82
272.102	668.62
272.904	589.7
273.706	590.72
274.508	588.67
275.309	627.62
276.111	608.15
276.913	521.02
277.714	512.82
278.515	558.95
279.317	657.34
280.118	530.25
280.919	616.35
281.72	583.55
282.521	626.6
283.322	545.62
284.122	607.12
284.923	627.62
285.724	586.62
286.524	580.47
287.325	696.29
288.125	536.4
288.925	576.37
289.725	590.72
290.525	685.02
291.325	598.92
292.125	600.97
292.925	627.62
293.724	531.27
294.524	512.82
295.324	548.7
296.123	580.47
296.922	577.4
297.722	842.81
298.521	607.12
299.32	712.68
300.119	517.94
300.918	616.35
301.716	711.66
302.515	586.62
303.314	674.77
304.112	586.62
304.911	690.14
305.709	581.5
306.507	639.92
307.306	594.82
308.104	574.32
308.902	608.15
309.7	583.55
310.498	652.22
311.295	501.54
312.093	649.15
312.891	689.11
313.688	638.9
314.485	586.62
315.283	737.28
316.08	623.52
316.877	571.25
317.674	586.62
318.471	499.49
319.268	562.02
320.065	628.65
320.862	630.7
321.658	600.97
322.455	648.12
323.251	556.9
324.047	556.9
324.844	721.91
325.64	527.17
326.436	603.02
327.232	568.17
328.028	596.87
328.824	543.57
329.62	659.39
330.415	724.98
331.211	623.52
332.006	598.92
332.802	660.42
333.597	584.57
334.392	659.39
335.187	639.92
335.982	559.97
336.777	641.97
337.572	569.2
338.367	628.65
339.162	655.3
339.956	594.82
340.751	630.7
341.545	648.12
342.34	659.39
343.134	549.72
343.928	659.39
344.722	668.62
345.516	557.92
346.31	565.1
347.104	606.1
347.898	609.17
348.691	590.72
349.485	522.05
350.278	634.8
351.072	707.56
351.865	7212.46
352.658	631.72
353.452	690.14
354.245	565.1
355.038	646.07
355.83	586.62
356.623	582.52
357.416	568.17
358.209	590.72
359.001	557.92
359.794	628.65
360.586	634.8
361.378	664.52
362.17	570.22
362.963	532.3
363.755	683.99
364.546	530.25
365.338	611.22
366.13	657.34
366.922	609.17
367.713	587.65
368.505	595.85
369.296	587.65
370.088	481.04
370.879	543.57
371.67	599.95
372.461	551.77
373.252	580.47
374.043	677.84
374.834	484.11
375.625	634.8
376.415	671.69
377.206	628.65
377.996	575.35
378.787	696.29
379.577	529.22
380.367	496.42
381.157	614.3
381.947	584.57
382.737	617.37
383.527	624.55
384.317	703.46
385.107	591.75
385.896	652.22
386.686	606.1
387.475	639.92
388.265	580.47
389.054	844.86
389.843	586.62
390.632	603.02
391.421	628.65
392.21	676.82
392.999	556.9
393.788	608.15
394.576	618.4
395.365	605.07
396.154	594.82
396.942	565.1
397.73	606.1
398.519	617.37
399.307	619.42
400.095	594.82
400.883	709.61
401.671	604.05
402.459	619.42
403.246	538.45
404.034	582.52
404.822	567.15
405.609	653.25
406.396	686.04
407.184	536.4
407.971	634.8
408.758	638.9
409.545	466.69
410.332	645.05
411.119	654.27
411.906	533.32
412.693	624.55
413.479	638.9
414.266	568.17
415.052	631.72
415.839	590.72
416.625	568.17
417.411	640.95
418.197	673.74
418.983	708.59
419.769	654.27
420.555	590.72
421.341	607.12
422.127	621.47
422.912	591.75
423.698	670.67
424.483	589.7
425.269	572.27
426.054	507.69
426.839	619.42
427.624	546.65
428.409	582.52
429.194	595.85
429.979	638.9
430.764	621.47
431.549	611.22
432.333	594.82
433.118	511.79
433.902	630.7
434.687	569.2
435.471	616.35
436.255	607.12
437.039	583.55
437.823	597.9
438.607	574.32
439.391	613.27
440.175	612.25
440.958	576.37
441.742	587.65
442.526	525.12
443.309	610.2
444.092	680.92
444.876	607.12
445.659	592.77
446.442	686.04
447.225	657.34
448.008	682.97
448.791	650.17
449.573	744.45
450.356	686.04
451.139	647.1
451.921	570.22
452.704	629.67
453.486	598.92
454.268	641.97
455.05	628.65
455.833	580.47
456.615	621.47
457.396	597.9
458.178	627.62
458.96	539.47
459.742	591.75
460.523	584.57
461.305	568.17
462.086	624.55
462.868	703.46
463.649	608.15
464.43	573.3
465.211	700.39
465.992	556.9
466.773	711.66
467.554	607.12
468.335	616.35
469.115	621.47
469.896	525.12
470.676	484.11
471.457	622.5
472.237	605.07
473.018	604.05
473.798	598.92
474.578	624.55
475.358	596.87
476.138	534.35
476.918	523.07
477.697	568.17
478.477	676.82
479.257	608.15
480.036	554.85
480.816	522.05
481.595	630.7
482.374	593.8
483.153	649.15
483.932	614.3
484.711	591.75
485.49	610.2
486.269	568.17
487.048	520
487.827	636.85
488.605	568.17
489.384	559.97
490.162	617.37
490.941	674.77
491.719	569.2
492.497	583.55
493.275	567.15
494.053	620.45
494.831	568.17
495.609	610.2
496.387	630.7
497.164	632.75
497.942	613.27
498.72	580.47
499.497	594.82
500.274	509.74
501.052	577.4
501.829	633.77
502.606	557.92
503.383	597.9
504.16	617.37
504.937	617.37
505.714	535.37
506.49	683.99
507.267	521.02
508.043	615.32
508.82	674.77
509.596	541.52
510.373	562.02
511.149	531.27
511.925	573.3
512.701	599.95
513.477	668.62
514.253	593.8
515.029	582.52
515.804	584.57
516.58	686.04
517.356	593.8
518.131	693.21
518.906	547.67
519.682	617.37
520.457	596.87
521.232	613.27
522.007	633.77
522.782	555.87
523.557	545.62
524.332	544.6
525.107	667.59
525.881	552.8
526.656	517.94
527.43	548.7
528.205	567.15
528.979	533.32
529.753	565.1
530.527	652.22
531.302	550.75
532.076	595.85
532.849	570.22
533.623	588.67
534.397	529.22
535.171	602
535.944	655.3
536.718	517.94
537.491	716.78
538.265	495.39
539.038	620.45
539.811	614.3
540.584	578.42
541.357	586.62
542.13	698.34
542.903	697.31
543.676	598.92
544.449	605.07
545.221	624.55
545.994	569.2
546.766	614.3
547.539	555.87
548.311	629.67
549.083	593.8
549.855	453.36
550.627	661.44
551.399	590.72
552.171	703.46
552.943	631.72
553.715	555.87
554.486	592.77
555.258	530.25
556.029	541.52
556.801	616.35
557.572	530.25
558.343	565.1
559.114	656.32
559.886	630.7
560.657	590.72
561.427	504.62
562.198	550.75
562.969	611.22
563.74	585.6
564.51	561
565.281	678.87
566.051	561
566.822	562.02
567.592	579.45
568.362	563.05
569.132	577.4
569.902	756.75
570.672	532.3
571.442	621.47
572.212	612.25
572.982	587.65
573.751	625.57
574.521	617.37
575.29	712.68
576.06	631.72
576.829	590.72
577.598	581.5
578.367	533.32
579.136	562.02
579.905	621.47
580.674	652.22
581.443	633.77
582.212	571.25
582.981	646.07
583.749	569.2
584.518	580.47
585.286	687.07
586.054	735.23
586.823	628.65
587.591	563.05
588.359	663.49
589.127	608.15
589.895	681.94
590.663	686.04
591.431	633.77
592.198	644.02
592.966	654.27
593.734	697.31
594.501	592.77
595.268	613.27
596.036	714.73
596.803	559.97
597.57	578.42
598.337	562.02
599.104	563.05
599.871	645.05
600.638	635.82
601.405	664.52
602.171	555.87
602.938	753.67
603.704	525.12
604.471	550.75
605.237	697.31
606.004	598.92
606.77	652.22
607.536	699.36
608.302	677.84
609.068	675.79
609.834	609.17
610.599	659.39
611.365	564.07
612.131	605.07
612.896	653.25
613.662	693.21
614.427	641.97
615.193	611.22
615.958	612.25
616.723	629.67
617.488	506.67
618.253	617.37
619.018	609.17
619.783	578.42
620.548	682.97
621.312	590.72
622.077	549.72
622.842	614.3
623.606	747.52
624.37	610.2
625.135	649.15
625.899	648.12
626.663	593.8
627.427	644.02
628.191	633.77
628.955	704.49
629.719	594.82
630.483	610.2
631.246	510.77
632.01	592.77
632.773	694.24
633.537	558.95
634.3	595.85
635.063	576.37
635.827	510.77
636.59	573.3
637.353	647.1
638.116	654.27
638.879	534.35
639.641	698.34
640.404	630.7
641.167	588.67
641.929	645.05
642.692	535.37
643.454	564.07
644.216	648.12
644.979	647.1
645.741	650.17
646.503	687.07
647.265	659.39
648.027	695.26
648.789	556.9
649.551	617.37
650.312	611.22
651.074	590.72
651.835	577.4
652.597	620.45
653.358	639.92
654.12	617.37
654.881	600.97
655.642	614.3
656.403	580.47
657.164	635.82
657.925	612.25
658.686	653.25
659.447	546.65
660.207	563.05
660.968	631.72
661.728	681.94
662.489	622.5
663.249	611.22
664.01	574.32
664.77	661.44
665.53	659.39
666.29	555.87
667.05	663.49
667.81	581.5
668.57	574.32
669.329	578.42
670.089	577.4
670.849	606.1
671.608	657.34
672.368	537.42
673.127	655.3
673.886	564.07
674.646	530.25
675.405	608.15
676.164	648.12
676.923	629.67
677.682	715.76
678.44	619.42
679.199	566.12
679.958	811.05
680.717	614.3
681.475	547.67
682.233	570.22
682.992	499.49
683.75	592.77
684.508	643
685.266	550.75
686.024	635.82
686.782	600.97
687.54	659.39
688.298	629.67
689.056	675.79
689.814	534.35
690.571	630.7
691.329	603.02
692.086	582.52
692.843	581.5
693.601	628.65
694.358	667.59
695.115	553.82
695.872	555.87
696.629	529.22
697.386	675.79
698.143	680.92
698.9	548.7
699.656	572.27
700.413	592.77
701.169	646.07
701.926	584.57
702.682	616.35
703.438	568.17
704.195	712.68
704.951	533.32
705.707	522.05
706.463	532.3
707.219	575.35
707.974	540.5
708.73	485.14
709.486	565.1
710.241	578.42
710.997	576.37
711.752	602
712.508	588.67
713.263	578.42
714.018	597.9
714.773	598.92
715.528	707.56
716.283	644.02
717.038	558.95
717.793	614.3
718.548	602
719.303	613.27
720.057	573.3
720.812	584.57
721.566	524.1
722.321	591.75
723.075	587.65
723.829	624.55
724.583	572.27
725.337	591.75
726.091	678.87
726.845	624.55
727.599	513.84
728.353	608.15
729.106	536.4
729.86	680.92
730.614	521.02
731.367	6167.52
732.12	589.7
732.874	547.67
733.627	611.22
734.38	626.6
735.133	622.5
735.886	575.35
736.639	568.17
737.392	633.77
738.145	546.65
738.897	679.89
739.65	602
740.403	626.6
741.155	622.5
741.907	630.7
742.66	707.56
743.412	516.92
744.164	644.02
744.916	532.3
745.668	599.95
746.42	715.76
747.172	604.05
747.924	597.9
748.676	527.17
749.427	580.47
750.179	620.45
750.93	671.69
751.682	533.32
752.433	648.12
753.184	682.97
753.935	575.35
754.687	544.6
755.438	611.22
756.189	593.8
756.939	561
757.69	566.12
758.441	649.15
759.192	604.05
759.942	649.15
760.693	652.22
761.443	613.27
762.194	551.77
762.944	538.45
763.694	660.42
764.444	575.35
765.194	638.9
765.944	621.47
766.694	641.97
767.444	677.84
768.194	657.34
768.943	548.7
769.693	654.27
770.443	614.3
771.192	649.15
771.941	493.34
772.691	644.02
773.44	605.07
774.189	653.25
774.938	616.35
775.687	590.72
776.436	617.37
777.185	641.97
777.934	553.82
778.683	609.17
779.431	598.92
780.18	653.25
780.928	582.52
781.677	602
782.425	628.65
783.173	646.07
783.922	637.87
784.67	714.73
785.418	665.54
786.166	713.71
786.914	557.92
787.661	628.65
788.409	611.22
789.157	607.12
789.904	597.9
790.652	671.69
791.399	639.92
792.147	618.4
792.894	664.52
793.641	606.1
794.388	5238.07
795.136	646.07
795.883	569.2
796.629	681.94
797.376	524.1
798.123	564.07
798.87	533.32
799.616	569.2
800.363	704.49
801.109	697.31
801.856	656.32
802.602	475.91
803.349	707.56
804.095	736.25
804.841	619.42
805.587	625.57
806.333	633.77
807.079	637.87
807.825	622.5
808.57	619.42
809.316	715.76
810.062	633.77
810.807	657.34
811.553	733.18
812.298	679.89
813.043	637.87
813.788	694.24
814.534	617.37
815.279	710.63
816.024	655.3
816.769	633.77
817.514	655.3
818.258	631.72
819.003	715.76
819.748	15587.99
820.492	623.52
821.237	4703.08
821.981	599.95
822.726	714.73
823.47	721.91
824.214	706.54
824.958	633.77
825.702	646.07
826.446	654.27
827.19	661.44
827.934	713.71
828.678	651.2
829.421	745.48
830.165	660.42
830.909	635.82
831.652	615.32
832.395	687.07
833.139	703.46
833.882	795.68
834.625	650.17
835.368	623.52
836.111	575.35
836.854	616.35
837.597	664.52
838.34	671.69
839.083	662.47
839.825	679.89
840.568	553.82
841.311	643
842.053	704.49
842.795	563.05
843.538	612.25
844.28	573.3
845.022	556.9
845.764	762.89
846.506	522.05
847.248	595.85
847.99	637.87
848.732	657.34
849.474	592.77
850.215	531.27
850.957	505.64
851.698	569.2
852.44	659.39
853.181	572.27
853.922	689.11
854.664	603.02
855.405	690.14
856.146	525.12
856.887	610.2
857.628	700.39
858.369	524.1
859.109	681.94
859.85	589.7
860.591	685.02
861.331	542.55
862.072	507.69
862.812	489.24
863.553	548.7
864.293	696.29
865.033	580.47
865.773	610.2
866.513	526.15
867.253	545.62
867.993	566.12
868.733	597.9
869.473	635.82
870.213	688.09
870.952	532.3
871.692	605.07
872.431	551.77
873.171	612.25
873.91	575.35
874.649	486.16
875.388	620.45
876.128	583.55
876.867	525.12
877.606	608.15
878.345	575.35
879.083	546.65
879.822	540.5
880.561	608.15
881.299	582.52
882.038	579.45
882.777	656.32
883.515	686.04
884.253	7876.99
884.992	604.05
885.73	583.55
886.468	598.92
887.206	735.23
887.944	635.82
888.682	650.17
889.42	611.22
890.157	623.52
890.895	554.85
891.633	1280.07
892.37	603.02
893.108	639.92
893.845	624.55
894.583	613.27
895.32	525.12
896.057	527.17
896.794	591.75
897.531	649.15
898.268	584.57
899.005	543.57
899.742	615.32
900.479	570.22
901.215	590.72
901.952	570.22
902.689	521.02
903.425	492.32
904.162	503.59
904.898	617.37
905.634	689.11
906.37	614.3
907.106	508.72
907.843	611.22
908.579	580.47
909.314	465.66
910.05	577.4
910.786	581.5
911.522	512.82
912.257	644.02
912.993	589.7
913.728	554.85
914.464	577.4
915.199	548.7
915.935	523.07
916.67	547.67
917.405	612.25
918.14	622.5
918.875	614.3
919.61	666.57
920.345	671.69
921.08	696.29
921.814	586.62
922.549	556.9
923.284	804.9
924.018	564.07
924.752	679.89
925.487	607.12
926.221	639.92
926.955	599.95
927.69	542.55
928.424	581.5
929.158	633.77
929.892	557.92
930.625	628.65
931.359	716.78
932.093	623.52
932.827	552.8
933.56	584.57
934.294	510.77
935.027	616.35
935.761	649.15
936.494	575.35
937.227	541.52
937.96	641.97
938.693	655.3
939.426	554.85
940.159	668.62
940.892	599.95
941.625	672.72
942.358	671.69
943.091	582.52
943.823	533.32
944.556	503.59
945.288	569.2
946.021	607.12
946.753	567.15
947.485	637.87
948.217	603.02
948.95	616.35
949.682	528.2
950.414	541.52
951.146	592.77
951.877	564.07
952.609	589.7
953.341	624.55
954.073	696.29
954.804	619.42
955.536	576.37
956.267	645.05
956.998	545.62
957.73	542.55
958.461	541.52
959.192	534.35
959.923	669.64
960.654	616.35
961.385	556.9
962.116	616.35
962.847	561
963.578	593.8
964.308	586.62
965.039	511.79
965.769	595.85
966.5	614.3
967.23	572.27
967.961	613.27
968.691	656.32
969.421	518.97
970.151	622.5
970.881	524.1
971.611	644.02
972.341	611.22
973.071	658.37
973.801	670.67
974.53	553.82
975.26	562.02
975.99	586.62
976.719	658.37
977.448	583.55
978.178	586.62
978.907	620.45
979.636	528.2
980.365	646.07
981.095	679.89
981.824	641.97
982.553	598.92
983.281	559.97
984.01	2.05
984.739	-26.68
985.468	-57.47
986.196	-85.17
986.925	826.42
987.653	587.65
988.382	693.21
989.11	623.52
989.838	641.97
990.566	715.76
991.295	570.22
992.023	678.87
992.751	686.04
993.478	603.02
994.206	631.72
994.934	603.02
995.662	-9.24
996.389	-46.18
997.117	135.43
997.845	87.21
