Data from SampleKW32_Bg_Subt2_009.txt Node
Date: Fri Aug 23 09:23:16 EDT 2019
User: wcc
Spectrometer: QEPB0759
Trigger mode: 0
Integration Time (sec): 1.000000E0
Scans to average: 1
Electric dark correction enabled: true
Nonlinearity correction enabled: true
Boxcar width: 0
XAxis mode: Wavelengths
Number of Pixels in Spectrum: 1044
>>>>>Begin Spectral Data<<<<<
197.938	-20.76
198.749	-20.76
199.559	-35.11
200.369	-6.41
201.179	-14.61
201.988	-18.71
202.798	-15.63
203.608	-22.81
204.417	-28.96
205.227	-3.33
206.036	-18.71
206.846	-20.76
207.655	-22.81
208.464	-14.61
209.273	-11.53
210.082	-9.48
210.891	-20.76
211.7	-7.43
212.508	-33.06
213.317	-2.31
214.125	-23.84
214.934	-9.48
215.742	-7.43
216.55	-5.38
217.359	-10.51
218.167	-8.46
218.975	-16.66
219.782	-3.33
220.59	-25.89
221.398	-14.61
222.206	-22.8
223.013	-15.63
223.82	-20.76
224.628	-31.01
225.435	-15.63
226.242	-22.81
227.049	-21.78
227.856	-6.41
228.663	-32.03
229.47	-5.38
230.277	-3.33
231.083	-26.91
231.89	-18.71
232.696	-14.61
233.502	-20.76
234.309	-17.68
235.115	-28.96
235.921	-25.88
236.727	-19.73
237.533	-29.98
238.339	-34.08
239.144	-22.81
239.95	-6.41
240.756	-15.63
241.561	-19.73
242.366	-31.01
243.172	-26.91
243.977	-16.66
244.782	-32.03
245.587	-14.61
246.392	-9.48
247.197	-17.68
248.001	-20.76
248.806	-19.73
249.611	-22.81
250.415	-13.58
251.219	-20.76
252.024	-15.63
252.828	-8.46
253.632	-18.71
254.436	-0.26
255.24	-19.73
256.044	3.84
256.848	-15.63
257.651	-22.81
258.455	-21.78
259.258	-24.86
260.062	-1708.43
260.865	-18.71
261.668	-0.26
262.471	-31.01
263.274	-20.76
264.077	-23.84
264.88	-32.03
265.683	-12.56
266.486	-0.26
267.288	-6.41
268.091	3.84
268.893	-47.41
269.696	-12.56
270.498	-15.63
271.3	-23.83
272.102	-34.08
272.904	-24.86
273.706	-2.31
274.508	-6.41
275.309	-39.21
276.111	-12.56
276.913	-6.41
277.714	-21.79
278.515	-34.09
279.317	-15.63
280.118	-5.38
280.919	-19.73
281.72	-9.48
282.521	-26.91
283.322	-7.43
284.122	-6.41
284.923	-23.83
285.724	0.77
286.524	-23.83
287.325	-31.01
288.125	-31.01
288.925	-21.78
289.725	-37.16
290.525	-27.93
291.325	-23.83
292.125	-29.98
292.925	-32.03
293.724	-4.36
294.524	-28.96
295.324	-4.36
296.123	-22.81
296.922	-7.43
297.722	-11.53
298.521	-10.51
299.32	-6.41
300.119	-27.94
300.918	-24.86
301.716	-14.6
302.515	-22.81
303.314	-19.73
304.112	-26.91
304.911	-6.41
305.709	-20.76
306.507	-20.76
307.306	-39.21
308.104	-15.63
308.902	-28.96
309.7	-26.91
310.498	-27.93
311.295	-34.09
312.093	-17.68
312.891	-23.83
313.688	-22.81
314.485	-6.41
315.283	-13.58
316.08	-9.48
316.877	-21.78
317.674	-24.86
318.471	-21.79
319.268	-9.48
320.065	-28.96
320.862	-27.93
321.658	-10.51
322.455	5.89
323.251	-43.31
324.047	-14.61
324.844	-18.71
325.64	-6.41
326.436	-17.68
327.232	-26.91
328.028	-11.53
328.824	-5.38
329.62	-6.41
330.415	-27.93
331.211	-15.63
332.006	-3.33
332.802	-21.78
333.597	-31.01
334.392	-9.48
335.187	-25.88
335.982	-8.46
336.777	-12.56
337.572	-22.81
338.367	-33.06
339.162	-13.58
339.956	-14.61
340.751	-6.41
341.545	-18.71
342.34	-21.78
343.134	-7.43
343.928	-14.61
344.722	-18.71
345.516	-15.63
346.31	-41.26
347.104	-17.68
347.898	-17.68
348.691	-37.16
349.485	-6.41
350.278	-26.91
351.072	-13.58
351.865	-509.21
352.658	-2.31
353.452	-32.03
354.245	-14.61
355.038	-20.76
355.83	-8.46
356.623	-25.88
357.416	-19.73
358.209	-11.53
359.001	-24.86
359.794	-24.86
360.586	-23.83
361.378	-16.66
362.17	-27.93
362.963	-11.53
363.755	-12.56
364.546	-23.84
365.338	-26.91
366.13	-2.31
366.922	-28.96
367.713	-23.83
368.505	-18.71
369.296	-11.53
370.088	-11.53
370.879	-24.86
371.67	-34.08
372.461	-20.76
373.252	-17.68
374.043	-22.81
374.834	-20.76
375.625	-19.73
376.415	-26.91
377.206	-23.83
377.996	-27.93
378.787	-22.8
379.577	-10.51
380.367	-18.71
381.157	-12.56
381.947	-18.71
382.737	-16.66
383.527	-14.61
384.317	-15.63
385.107	-11.53
385.896	-33.06
386.686	-8.46
387.475	-20.76
388.265	-21.78
389.054	-4.35
389.843	-11.53
390.632	-24.86
391.421	-31.01
392.21	-12.56
392.999	-12.56
393.788	1.79
394.576	-6.41
395.365	-31.01
396.154	-8.46
396.942	-3.33
397.73	-32.03
398.519	-27.93
399.307	-10.51
400.095	-35.11
400.883	-22.8
401.671	-13.58
402.459	-20.76
403.246	-38.19
404.034	-22.81
404.822	-19.73
405.609	-25.88
406.396	-14.61
407.184	-17.68
407.971	-11.53
408.758	-20.76
409.545	-11.53
410.332	-18.71
411.119	-8.46
411.906	-10.51
412.693	-22.81
413.479	-25.88
414.266	-22.81
415.052	-7.43
415.839	-8.46
416.625	-24.86
417.411	-13.58
418.197	-11.53
418.983	-34.08
419.769	-8.46
420.555	-20.76
421.341	-16.66
422.127	-0.26
422.912	-26.91
423.698	-18.71
424.483	-29.98
425.269	-26.91
426.054	-21.79
426.839	-15.63
427.624	-10.51
428.409	-36.14
429.194	0.77
429.979	3.84
430.764	-11.53
431.549	-12.56
432.333	-24.86
433.118	-18.71
433.902	-28.96
434.687	-53.56
435.471	-46.38
436.255	-27.93
437.039	-11.53
437.823	-38.18
438.607	-12.56
439.391	-27.93
440.175	-32.03
440.958	-9.48
441.742	-10.51
442.526	-22.81
443.309	-29.98
444.092	-12.56
444.876	-9.48
445.659	-20.76
446.442	-27.93
447.225	-17.68
448.008	-15.63
448.791	-16.66
449.573	3.84
450.356	-13.58
451.139	-20.76
451.921	-25.88
452.704	-11.53
453.486	-26.91
454.268	-14.61
455.05	-13.58
455.833	-12.56
456.615	-13.58
457.396	-21.78
458.178	-20.76
458.96	-21.78
459.742	-17.68
460.523	-20.76
461.305	-17.68
462.086	-29.98
462.868	-23.83
463.649	-3.33
464.43	-14.61
465.211	-15.63
465.992	-7.43
466.773	-20.75
467.554	-6.41
468.335	-3.33
469.115	-17.68
469.896	-16.66
470.676	-12.56
471.457	-32.03
472.237	-16.66
473.018	-9.48
473.798	-20.76
474.578	-13.58
475.358	-21.78
476.138	-7.43
476.918	-21.78
477.697	-11.53
478.477	-21.78
479.257	-19.73
480.036	-24.86
480.816	-41.26
481.595	-27.93
482.374	-39.21
483.153	-23.83
483.932	-22.81
484.711	-33.06
485.49	-50.48
486.269	-36.13
487.048	-70.99
487.827	-41.26
488.605	-45.36
489.384	-41.26
490.162	-31.01
490.941	-35.1
491.719	-16.66
492.497	-33.06
493.275	-33.06
494.053	-19.73
494.831	-34.09
495.609	-14.61
496.387	-31.01
497.164	-28.96
497.942	-31.01
498.72	-21.78
499.497	-27.93
500.274	-15.63
501.052	-28.96
501.829	-9.48
502.606	-20.76
503.383	-27.93
504.16	-12.56
504.937	-33.06
505.714	-27.94
506.49	-15.63
507.267	-21.79
508.043	-17.68
508.82	-49.45
509.596	-4.36
510.373	-23.83
511.149	-28.96
511.925	-27.93
512.701	-5.38
513.477	-23.83
514.253	-24.86
515.029	-32.03
515.804	-37.16
516.58	-40.23
517.356	-25.88
518.131	-8.46
518.906	-8.46
519.682	-14.61
520.457	-48.44
521.232	-16.66
522.007	-23.83
522.782	-16.66
523.557	-22.81
524.332	-36.14
525.107	-27.93
525.881	-31.01
526.656	-27.94
527.43	-29.99
528.205	-42.29
528.979	-34.09
529.753	-12.56
530.527	-21.78
531.302	-8.46
532.076	-38.18
532.849	-15.63
533.623	-42.28
534.397	-22.81
535.171	-29.98
535.944	-32.03
536.718	-52.54
537.491	-38.18
538.265	-33.06
539.038	-37.16
539.811	-38.18
540.584	-61.76
541.357	-79.19
542.13	-86.35
542.903	-70.97
543.676	-75.08
544.449	-75.08
545.221	-65.85
545.994	-47.41
546.766	-41.26
547.539	-50.49
548.311	-61.76
549.083	-33.06
549.855	-55.62
550.627	-56.63
551.399	-39.21
552.171	-55.6
552.943	-38.18
553.715	-37.16
554.486	-20.76
555.258	-25.89
556.029	-15.63
556.801	-11.53
557.572	-28.96
558.343	-10.51
559.114	-31.01
559.886	-38.18
560.657	-13.58
561.427	-18.71
562.198	-25.88
562.969	-14.61
563.74	-25.88
564.51	-22.81
565.281	-40.23
566.051	-19.73
566.822	-9.48
567.592	-26.91
568.362	-8.46
569.132	-31.01
569.902	-4.36
570.672	-17.68
571.442	-23.83
572.212	-32.03
572.982	-7.43
573.751	-41.26
574.521	-18.71
575.29	-3.33
576.06	-38.18
576.829	-23.83
577.598	-37.16
578.367	-46.39
579.136	-24.86
579.905	-15.63
580.674	-39.21
581.443	-57.66
582.212	-36.13
582.981	-35.1
583.749	-20.76
584.518	-33.06
585.286	-33.05
586.054	-45.35
586.823	-52.53
587.591	-32.03
588.359	-39.2
589.127	-46.38
589.895	-41.25
590.663	-54.58
591.431	-57.66
592.198	-43.31
592.966	-29.98
593.734	-31
594.501	-38.18
595.268	-2.31
596.036	-39.2
596.803	-23.83
597.57	-17.68
598.337	-24.86
599.104	-50.49
599.871	-22.81
600.638	-36.13
601.405	-21.78
602.171	-20.76
602.938	-20.75
603.704	4.87
604.471	-20.76
605.237	-16.65
606.004	-31.01
606.77	-31
607.536	-28.95
608.302	-39.2
609.068	-38.18
609.834	-59.71
610.599	-102.74
611.365	-73.03
612.131	-63.81
612.896	-33.05
613.662	-42.28
614.427	-19.73
615.193	-33.06
615.958	-22.81
616.723	-25.88
617.488	-3.33
618.253	-9.48
619.018	-27.93
619.783	-25.88
620.548	-13.58
621.312	-23.83
622.077	-20.76
622.842	-21.78
623.606	-22.8
624.37	-13.58
625.135	3.84
625.899	-3.33
626.663	-19.73
627.427	-15.63
628.191	9.99
628.955	-28.95
629.719	-14.61
630.483	-29.98
631.246	-27.94
632.01	-27.93
632.773	-14.6
633.537	-11.53
634.3	-5.38
635.063	14.09
635.827	8.97
636.59	1.79
637.353	-7.43
638.116	-6.41
638.879	0.77
639.641	-4.36
640.404	-4.36
641.167	4.87
641.929	-5.38
642.692	-1.28
643.454	-2.31
644.216	-17.68
644.979	-17.68
645.741	-1.28
646.503	-5.38
647.265	-2.31
648.027	0.77
648.789	-7.43
649.551	-2.31
650.312	-2.31
651.074	5.89
651.835	-2.31
652.597	-5.38
653.358	-19.73
654.12	4.87
654.881	0.77
655.642	1.79
656.403	-9.48
657.164	-6.41
657.925	5.89
658.686	-10.51
659.447	-1.28
660.207	1.79
660.968	18.19
661.728	-4.36
662.489	-16.66
663.249	2.82
664.01	-5.38
664.77	-0.26
665.53	19.22
666.29	-10.51
667.05	-4.36
667.81	0.77
668.57	0.77
669.329	-0.26
670.089	0.77
670.849	-4.36
671.608	7.94
672.368	8.97
673.127	-13.58
673.886	11.02
674.646	7.94
675.405	6.92
676.164	1.79
676.923	3.84
677.682	-11.53
678.44	1.79
679.199	13.07
679.958	-17.68
680.717	3.84
681.475	13.07
682.233	8.97
682.992	11.02
683.75	-0.26
684.508	-3.33
685.266	0.77
686.024	7.94
686.782	12.04
687.54	2.82
688.298	1.79
689.056	7.94
689.814	-1.28
690.571	-7.43
691.329	6.92
692.086	-5.38
692.843	3.84
693.601	21.27
694.358	8.97
695.115	2.82
695.872	1.79
696.629	6.92
697.386	2.82
698.143	12.04
698.9	-12.56
699.656	5.89
700.413	7.94
701.169	-1.28
701.926	15.12
702.682	3.84
703.438	6.92
704.195	2.82
704.951	-8.46
705.707	-13.58
706.463	-13.58
707.219	-3.33
707.974	-22.81
708.73	-39.21
709.486	-19.73
710.241	-15.63
710.997	-2.31
711.752	-32.03
712.508	-6.41
713.263	-18.71
714.018	5.89
714.773	-10.51
715.528	5.89
716.283	-11.53
717.038	-6.41
717.793	-7.43
718.548	-6.41
719.303	11.02
720.057	-3.33
720.812	-7.43
721.566	-0.26
722.321	-24.86
723.075	0.77
723.829	-22.81
724.583	7.94
725.337	-9.48
726.091	-15.63
726.845	-9.48
727.599	-22.81
728.353	-14.61
729.106	-12.56
729.86	-20.76
730.614	-25.89
731.367	94.26
732.12	2.82
732.874	-9.48
733.627	-21.78
734.38	-12.56
735.133	4.87
735.886	-14.61
736.639	-15.63
737.392	-21.78
738.145	-3.33
738.897	-6.41
739.65	-3.33
740.403	-18.71
741.155	-21.78
741.907	-11.53
742.66	-15.63
743.412	-15.63
744.164	-14.61
744.916	-4.36
745.668	-18.71
746.42	-19.73
747.172	-0.26
747.924	-19.73
748.676	-17.68
749.427	-5.38
750.179	-13.58
750.93	-6.41
751.682	-0.26
752.433	-18.71
753.184	-32.03
753.935	4.87
754.687	-12.56
755.438	-17.68
756.189	-11.53
756.939	-27.93
757.69	-10.51
758.441	-8.46
759.192	-20.76
759.942	-10.51
760.693	-20.76
761.443	-20.76
762.194	-19.73
762.944	-20.76
763.694	-21.78
764.444	-10.51
765.194	-10.51
765.944	-20.76
766.694	-32.03
767.444	-10.51
768.194	-6.41
768.943	-8.46
769.693	-34.08
770.443	-14.61
771.192	-38.18
771.941	1.79
772.691	-29.98
773.44	-10.51
774.189	-13.58
774.938	-34.08
775.687	-22.81
776.436	-19.73
777.185	-18.71
777.934	-20.76
778.683	-15.63
779.431	-25.88
780.18	-23.83
780.928	-5.38
781.677	-29.98
782.425	-21.78
783.173	-32.03
783.922	-13.58
784.67	-19.73
785.418	-26.91
786.166	-6.41
786.914	1.79
787.661	-16.66
788.409	-15.63
789.157	-17.68
789.904	-14.61
790.652	-12.56
791.399	-23.83
792.147	-31.01
792.894	-2.31
793.641	-13.58
794.388	-36.88
795.136	-7.43
795.883	6.92
796.629	-13.58
797.376	-33.06
798.123	-10.51
798.87	3.84
799.616	-27.93
800.363	-15.63
801.109	-24.85
801.856	-27.93
802.602	-19.74
803.349	-7.43
804.095	-15.63
804.841	-23.83
805.587	-12.56
806.333	-15.63
807.079	-11.53
807.825	-11.53
808.57	-40.23
809.316	-14.6
810.062	-40.23
810.807	-14.61
811.553	-10.5
812.298	-32.03
813.043	-16.66
813.788	-23.83
814.534	-14.61
815.279	-10.51
816.024	-36.13
816.769	-21.78
817.514	-33.06
818.258	-17.68
819.003	-26.9
819.748	-377.5
820.492	-13.58
821.237	-76.63
821.981	-8.46
822.726	-26.9
823.47	-31
824.214	-16.65
824.958	-37.16
825.702	-26.91
826.446	-21.78
827.19	1.79
827.934	-17.68
828.678	-15.63
829.421	-7.43
830.165	-23.83
830.909	-7.43
831.652	-20.76
832.395	-19.73
833.139	-11.53
833.882	-20.75
834.625	-13.58
835.368	-24.86
836.111	-23.83
836.854	-46.38
837.597	-14.61
838.34	-16.66
839.083	-0.26
839.825	-25.88
840.568	8.97
841.311	-16.66
842.053	-19.73
842.795	-22.81
843.538	-25.88
844.28	-12.56
845.022	-11.53
845.764	-23.83
846.506	-7.43
847.248	-47.41
847.99	-23.83
848.732	-14.61
849.474	-26.91
850.215	-18.71
850.957	-23.84
851.698	-12.56
852.44	-26.91
853.181	-16.66
853.922	-22.8
854.664	-5.38
855.405	-35.1
856.146	-17.68
856.887	-12.56
857.628	-25.88
858.369	-13.58
859.109	-36.13
859.85	-29.98
860.591	-10.51
861.331	-26.91
862.072	-21.79
862.812	-21.79
863.553	-17.68
864.293	-33.06
865.033	-19.73
865.773	-4.36
866.513	-16.66
867.253	-9.48
867.993	-9.48
868.733	-18.71
869.473	-32.03
870.213	-34.08
870.952	-35.11
871.692	-29.98
872.431	-9.48
873.171	-8.46
873.91	-11.53
874.649	-15.63
875.388	-17.68
876.128	-23.83
876.867	-33.06
877.606	-20.76
878.345	-31.01
879.083	-28.96
879.822	-16.66
880.561	-29.98
881.299	-21.78
882.038	-20.76
882.777	4.87
883.515	-32.03
884.253	-36.73
884.992	-14.61
885.73	-26.91
886.468	-8.46
887.206	-13.58
887.944	-20.76
888.682	-19.73
889.42	-19.73
890.157	-13.58
890.895	-1.28
891.633	-29.95
892.37	-41.26
893.108	-17.68
893.845	-11.53
894.583	-26.91
895.32	-1.28
896.057	-26.91
896.794	-17.68
897.531	-41.26
898.268	-25.88
899.005	-20.76
899.742	-24.86
900.479	-12.56
901.215	-23.83
901.952	-9.48
902.689	-7.43
903.425	-14.61
904.162	-2.31
904.898	-26.91
905.634	-17.68
906.37	-21.78
907.106	-3.33
907.843	-16.66
908.579	-15.63
909.314	-15.64
910.05	-19.73
910.786	-27.93
911.522	-14.61
912.257	-48.43
912.993	-24.86
913.728	-10.51
914.464	-17.68
915.199	-10.51
915.935	-25.89
916.67	-19.73
917.405	-28.96
918.14	-24.86
918.875	-5.38
919.61	-5.38
920.345	-22.81
921.08	-27.93
921.814	-19.73
922.549	-6.41
923.284	-40.23
924.018	-26.91
924.752	-32.03
925.487	-25.88
926.221	-19.73
926.955	-22.81
927.69	-8.46
928.424	-7.43
929.158	-28.96
929.892	-37.16
930.625	-8.46
931.359	-17.68
932.093	-10.51
932.827	-16.66
933.56	-21.78
934.294	-10.51
935.027	-14.61
935.761	-20.76
936.494	-14.61
937.227	-25.88
937.96	-18.71
938.693	-11.53
939.426	-19.73
940.159	-29.98
940.892	-19.73
941.625	-19.73
942.358	-21.78
943.091	-20.76
943.823	-28.96
944.556	-20.76
945.288	-3.33
946.021	-19.73
946.753	0.77
947.485	-29.98
948.217	2.82
948.95	-20.76
949.682	-20.76
950.414	-17.68
951.146	-15.63
951.877	-16.66
952.609	19.22
953.341	-26.91
954.073	-11.53
954.804	-27.93
955.536	-17.68
956.267	-26.91
956.998	-7.43
957.73	-32.04
958.461	-23.84
959.192	-7.43
959.923	-19.73
960.654	-7.43
961.385	-3.33
962.116	-8.46
962.847	-17.68
963.578	-11.53
964.308	-20.76
965.039	-21.79
965.769	-20.76
966.5	-23.83
967.23	5.89
967.961	-12.56
968.691	-22.81
969.421	-22.81
970.151	-29.98
970.881	-32.04
971.611	-39.21
972.341	-20.76
973.071	-24.86
973.801	-16.66
974.53	-10.51
975.26	-18.71
975.99	-15.63
976.719	-21.78
977.448	-24.86
978.178	-20.76
978.907	-6.41
979.636	-12.56
980.365	-9.48
981.095	-18.71
981.824	-26.91
982.553	-27.93
983.281	-26.91
984.01	1.8
984.739	3.85
985.468	-8.47
986.196	-4.36
986.925	-16.65
987.653	-21.78
988.382	-15.63
989.11	-26.91
989.838	-4.36
990.566	11.02
991.295	-22.81
992.023	-13.58
992.751	-15.63
993.478	-5.38
994.206	-12.56
994.934	-13.58
995.662	-5.39
996.389	11.03
997.117	-4.36
997.845	5.9
