Data from SampleKW32_Subt2_007.txt Node
Date: Fri Aug 23 09:22:28 EDT 2019
User: wcc
Spectrometer: QEPB0759
Trigger mode: 0
Integration Time (sec): 1.000000E0
Scans to average: 1
Electric dark correction enabled: true
Nonlinearity correction enabled: true
Boxcar width: 0
XAxis mode: Wavelengths
Number of Pixels in Spectrum: 1044
>>>>>Begin Spectral Data<<<<<
197.938	-5
198.749	-14.22
199.559	-0.9
200.369	-5
201.179	0.13
201.988	-13.2
202.798	-6.02
203.608	-25.5
204.417	-9.1
205.227	8.33
206.036	-8.07
206.846	-11.15
207.655	-10.12
208.464	2.18
209.273	-3.97
210.082	-5
210.891	-15.25
211.7	0.13
212.508	-10.12
213.317	-6.02
214.125	-3.97
214.934	6.28
215.742	-7.05
216.55	6.28
217.359	-5
218.167	12.43
218.975	-12.17
219.782	0.13
220.59	-14.22
221.398	-3.97
222.206	-7.05
223.013	-5
223.82	0.13
224.628	0.13
225.435	21.65
226.242	1.15
227.049	-8.07
227.856	8.33
228.663	1.15
229.47	6.28
230.277	8.33
231.083	-25.5
231.89	3.2
232.696	-17.3
233.502	-2.95
234.309	-10.12
235.115	-5
235.921	1.15
236.727	4.23
237.533	-23.45
238.339	-28.57
239.144	2.18
239.95	14.48
240.756	-3.97
241.561	-17.3
242.366	-9.1
243.172	-0.9
243.977	2.18
244.782	-16.27
245.587	11.4
246.392	9.35
247.197	4.23
248.001	4.23
248.806	-8.07
249.611	-5
250.415	-7.05
251.219	-3.97
252.024	2.18
252.828	-9.1
253.632	0.13
254.436	17.56
255.24	-15.25
256.044	7.3
256.848	-7.05
257.651	-8.07
258.455	-36.77
259.258	-10.12
260.062	266.22
260.865	-14.22
261.668	13.45
262.471	-9.1
263.274	-14.22
264.077	-6.02
264.88	-18.32
265.683	2.18
266.486	3.2
267.288	2.18
268.091	4.23
268.893	-40.87
269.696	-10.12
270.498	-3.97
271.3	-18.32
272.102	-2.95
272.904	-20.37
273.706	5.25
274.508	-13.2
275.309	-32.67
276.111	-2.95
276.913	0.13
277.714	-16.28
278.515	-23.45
279.317	8.33
280.118	6.28
280.919	-9.1
281.72	-3.97
282.521	-23.45
283.322	-11.15
284.122	-7.05
284.923	-6.02
285.724	10.38
286.524	-20.37
287.325	-20.37
288.125	-26.53
288.925	-8.07
289.725	-28.57
290.525	-10.12
291.325	-15.25
292.125	-3.97
292.925	-18.32
293.724	-7.05
294.524	-1.92
295.324	1.15
296.123	-23.45
296.922	-0.9
297.722	-12.17
298.521	-6.02
299.32	6.28
300.119	-30.63
300.918	-10.12
301.716	-3.97
302.515	-14.22
303.314	-1.92
304.112	-20.37
304.911	-16.27
305.709	-32.68
306.507	-6.02
307.306	-24.47
308.104	-5
308.902	0.13
309.7	-13.2
310.498	-15.25
311.295	-6.02
312.093	-11.15
312.891	-17.3
313.688	1.15
314.485	-3.97
315.283	11.4
316.08	-13.2
316.877	-21.4
317.674	-7.05
318.471	-14.22
319.268	-8.07
320.065	-20.37
320.862	-24.47
321.658	-7.05
322.455	15.5
323.251	-33.7
324.047	-6.02
324.844	-3.97
325.64	-0.9
326.436	-9.1
327.232	-22.42
328.028	-11.15
328.824	5.25
329.62	-15.25
330.415	-19.34
331.211	-2.95
332.006	0.13
332.802	-19.35
333.597	-14.22
334.392	-8.07
335.187	-8.07
335.982	3.2
336.777	1.15
337.572	-22.42
338.367	-12.17
339.162	-18.32
339.956	5.25
340.751	-14.22
341.545	-7.05
342.34	-15.25
343.134	-7.05
343.928	-15.25
344.722	-0.9
345.516	-9.1
346.31	-17.3
347.104	-22.42
347.898	-7.05
348.691	-20.37
349.485	7.3
350.278	-20.37
351.072	-11.15
351.865	-96.15
352.658	15.5
353.452	-11.15
354.245	-0.9
355.038	-17.3
355.83	-6.02
356.623	-6.02
357.416	-12.17
358.209	7.3
359.001	-8.07
359.794	-15.25
360.586	-20.37
361.378	-9.1
362.17	-14.22
362.963	-9.1
363.755	-0.9
364.546	-12.17
365.338	-7.05
366.13	-2.95
366.922	-12.17
367.713	-14.22
368.505	-11.15
369.296	-16.27
370.088	3.2
370.879	-9.1
371.67	-6.02
372.461	-0.9
373.252	17.55
374.043	9.35
374.834	9.36
375.625	10.38
376.415	19.6
377.206	29.85
377.996	42.15
378.787	54.44
379.577	51.38
380.367	82.14
381.157	108.77
381.947	123.13
382.737	150.79
383.527	170.25
384.317	234.79
385.107	272.74
385.896	287.03
386.686	350.56
387.475	388.45
388.265	446.88
389.054	494.81
389.843	588.18
390.632	648.55
391.421	736.57
392.21	777.5
392.999	884.03
393.788	969.91
394.576	1083.39
395.365	1144.74
396.154	1264.48
396.942	1379.02
397.73	1442.27
398.519	1543.44
399.307	1635.36
400.095	1706.82
400.883	1813.83
401.671	1911.11
402.459	2037.64
403.246	2130.65
404.034	2259.18
404.822	2379.46
405.609	2474.03
406.396	2616.65
407.184	2688.63
407.971	2751.34
408.758	2833.89
409.545	2897.87
410.332	2957.03
411.119	3072.22
411.906	3154.17
412.693	3271.72
413.479	3394.79
414.266	3559.98
415.052	3759.89
415.839	4015.26
416.625	4207.36
417.411	4455.01
418.197	4705.07
418.983	4924.72
419.769	5045
420.555	5042.27
421.341	4983.58
422.127	4935.76
422.912	4901.43
423.698	4889.53
424.483	4874.02
425.269	4952.29
426.054	4990.25
426.839	5121.11
427.624	5303.12
428.409	5452.82
429.194	5719.13
429.979	5990.17
430.764	6255.12
431.549	6563.67
432.333	6824.32
433.118	7041.41
433.902	7261.93
434.687	7456.15
435.471	7649.35
436.255	7905.84
437.039	8164.72
437.823	8399.95
438.607	8598.74
439.391	8653.43
440.175	8762.44
440.958	8897.9
441.742	9188.53
442.526	9333.38
443.309	9522.1
444.092	9801.83
444.876	9995.77
445.659	10189.06
446.442	10427.82
447.225	10675.24
448.008	11088.26
448.791	12080.54
449.573	13227.89
450.356	13426.47
451.139	13030.21
451.921	13265.37
452.704	13231.11
453.486	13000.47
454.268	13160.44
455.05	13534.81
455.833	13920.26
456.615	14437.69
457.396	14855.05
458.178	15072.13
458.96	15006.22
459.742	14965.11
460.523	15107.11
461.305	15467.5
462.086	15867.61
462.868	15999.19
463.649	15783.19
464.43	15429.41
465.211	15410.63
465.992	15937.92
466.773	16984.22
467.554	17788.44
468.335	17698.26
469.115	16842.59
469.896	16082.19
470.676	15266.77
471.457	14980.36
472.237	15650.93
473.018	16292.68
473.798	15055.13
474.578	13488.26
475.358	12698.07
476.138	12251.34
476.918	11797.12
477.697	11486.46
478.477	11314.04
479.257	11270.11
480.036	11402.37
480.816	11477
481.595	11237.46
482.374	10692.26
483.153	10202.02
483.932	9644.71
484.711	9047.32
485.49	8549.65
486.269	8089.86
487.048	7784.59
487.827	7532.33
488.605	7297.88
489.384	7115.34
490.162	6921.87
490.941	7041.31
491.719	7090.19
492.497	6772.68
493.275	6362.48
494.053	5850.2
494.831	5504.61
495.609	5214.5
496.387	4867.44
497.164	4570.38
497.942	4309.66
498.72	4073.23
499.497	3822.13
500.274	3605.16
501.052	3315.72
501.829	3115.99
502.606	2887.2
503.383	2617.93
504.16	2396.74
504.937	2130.44
505.714	1910.28
506.49	1715.92
507.267	1488.47
508.043	1306.3
508.82	1122.12
509.596	997.66
510.373	844.08
511.149	701.87
511.925	578.96
512.701	523.66
513.477	428.36
514.253	352.62
515.029	272.72
515.804	227.64
516.58	192.78
517.356	172.31
518.131	143.6
518.906	130.31
519.682	103.65
520.457	81.1
521.232	84.18
522.007	68.8
522.782	62.66
523.557	77.01
524.332	40.11
525.107	44.2
525.881	43.18
526.656	36.01
527.43	27.81
528.205	19.6
528.979	34.98
529.753	38.06
530.527	38.05
531.302	42.16
532.076	13.45
532.849	33.96
533.623	8.33
534.397	30.88
535.171	11.4
535.944	36
536.718	4.23
537.491	11.4
538.265	10.38
539.038	13.45
539.811	-0.9
540.584	-15.25
541.357	-8.07
542.13	-17.29
542.903	-16.27
543.676	-19.35
544.449	-24.47
545.221	-23.45
545.994	-10.12
546.766	-7.05
547.539	5.25
548.311	-22.42
549.083	11.4
549.855	1.15
550.627	-13.2
551.399	-0.9
552.171	-13.2
552.943	5.25
553.715	8.33
554.486	22.68
555.258	19.61
556.029	17.56
556.801	40.1
557.572	21.66
558.343	23.71
559.114	14.48
559.886	10.38
560.657	27.8
561.427	22.68
562.198	11.4
562.969	20.63
563.74	26.78
564.51	22.68
565.281	24.73
566.051	24.73
566.822	20.63
567.592	30.88
568.362	26.78
569.132	23.7
569.902	18.57
570.672	31.91
571.442	23.7
572.212	17.55
572.982	27.8
573.751	27.8
574.521	39.08
575.29	40.1
576.06	8.33
576.829	16.53
577.598	21.65
578.367	22.68
579.136	27.81
579.905	28.83
580.674	43.17
581.443	19.6
582.212	14.48
582.981	25.75
583.749	42.15
584.518	39.08
585.286	42.15
586.054	45.22
586.823	45.22
587.591	58.55
588.359	85.19
589.127	94.42
589.895	139.49
590.663	166.13
591.431	232.74
592.198	343.37
592.966	502.1
593.734	710.88
594.501	1009.78
595.268	1405.48
596.036	1875.04
596.803	2516.19
597.57	3311.6
598.337	4264.14
599.104	5286.45
599.871	6548.93
600.638	7964.03
601.405	9442.8
602.171	11014.1
602.938	12740.61
603.704	14440.63
604.471	16135.35
605.237	17835.24
606.004	19617.44
606.77	21249.75
607.536	22940.18
608.302	24485.34
609.068	25969.46
609.834	27428.31
610.599	28690.89
611.365	30061.05
612.131	31269.54
612.896	32398.89
613.662	33311.47
614.427	34334.29
615.193	35168.94
615.958	35729.33
616.723	36384.14
617.488	37000.52
618.253	37400.25
619.018	37749.54
619.783	38192.7
620.548	38422.92
621.312	38665.73
622.077	38874.33
622.842	38946.88
623.606	39221.36
624.37	39138.38
625.135	39179.83
625.899	39100.35
626.663	39016.35
627.427	38826.68
628.191	38656.98
628.955	38563.9
629.719	38508.26
630.483	38240.49
631.246	37960.71
632.01	37680.65
632.773	37419.44
633.537	37004.18
634.3	36749.95
635.063	36305.9
635.827	35981.15
636.59	35573.2
637.353	35151.18
638.116	34763.8
638.879	34451.84
639.641	34134.46
640.404	33724.04
641.167	33306.46
641.929	32906.06
642.692	32675.6
643.454	32399
644.216	32079.1
644.979	31841.86
645.741	31614.28
646.503	31394.47
647.265	31203.48
648.027	30960.58
648.789	30716.69
649.551	30535.46
650.312	29994.68
651.074	29373.76
651.835	28935.04
652.597	28450.65
653.358	28156.99
654.12	27897.71
654.881	27647.51
655.642	27436.7
656.403	27177.41
657.164	27050.54
657.925	26922.49
658.686	26868.13
659.447	26765.79
660.207	26694.71
660.968	26721.44
661.728	26760.22
662.489	26779.51
663.249	26891.33
664.01	26876.24
664.77	27010.21
665.53	27055.19
666.29	27169.09
667.05	27210.99
667.81	27323.52
668.57	27363.95
669.329	27369.3
670.089	27401.06
670.849	27458.83
671.608	27612.7
672.368	27568.83
673.127	27452.77
673.886	27483.71
674.646	27449.14
675.405	27264.48
676.164	27242.66
676.923	27076.71
677.682	26878.39
678.44	26724.86
679.199	26683.24
679.958	26575.36
680.717	26683.25
681.475	27062.43
682.233	27666.61
682.992	27730.88
683.75	27148.31
684.508	26450.19
685.266	25829.89
686.024	25221.94
686.782	24946.88
687.54	24677.01
688.298	24247.64
689.056	23856.88
689.814	23440.65
690.571	22888.79
691.329	22451.82
692.086	21911.82
692.843	21406.75
693.601	20991.67
694.358	20499.82
695.115	20059.16
695.872	19751.28
696.629	19363.82
697.386	19041.23
698.143	18767.3
698.9	18527.71
699.656	18371.37
700.413	18145.4
701.169	17963.79
701.926	17774.09
702.682	17657.18
703.438	17490.38
704.195	17303.07
704.951	17168.94
705.707	17013.99
706.463	16948.35
707.219	16911.55
707.974	16824.71
708.73	16832.63
709.486	16842.67
710.241	16682.58
710.997	16653.17
711.752	16519.45
712.508	16253.4
713.263	15915.45
714.018	15518.02
714.773	15132.2
715.528	14621.89
716.283	14125.55
717.038	13640.06
717.793	13278.74
718.548	12769.94
719.303	12170.99
720.057	11689.34
720.812	11235.85
721.566	10781.8
722.321	10429.93
723.075	10133.03
723.829	9840.44
724.583	9619.53
725.337	9411.08
726.091	9230.83
726.845	9115.7
727.599	8996.36
728.353	8857.21
729.106	8704.19
729.86	8577.26
730.614	8578.07
731.367	8391.81
732.12	8692.42
732.874	8525.73
733.627	8194.36
734.38	7735.52
735.133	7316.11
735.886	7025.76
736.639	6739.66
737.392	6582.84
738.145	6491.64
738.897	6412.46
739.65	6315.11
740.403	6188.36
741.155	6000.01
741.907	5702.66
742.66	5250.16
743.412	4729.54
744.164	4088.19
744.916	3364.07
745.668	2479.33
746.42	1671.85
747.172	972.98
747.924	499.08
748.676	249.18
749.427	164.11
750.179	99.54
750.93	103.64
751.682	96.49
752.433	67.77
753.184	63.67
753.935	71.88
754.687	67.78
755.438	60.6
756.189	54.45
756.939	48.3
757.69	55.48
758.441	59.58
759.192	39.08
759.942	50.35
760.693	29.85
761.443	40.1
762.194	44.21
762.944	51.38
763.694	41.13
764.444	53.43
765.194	46.25
765.944	20.63
766.694	28.83
767.444	31.9
768.194	22.68
768.943	15.51
769.693	19.6
770.443	13.45
771.192	-14.22
771.941	18.58
772.691	8.33
773.44	21.65
774.189	22.68
774.938	-5
775.687	9.35
776.436	-5
777.185	12.43
777.934	11.4
778.683	11.4
779.431	4.23
780.18	9.35
780.928	16.53
781.677	4.23
782.425	14.48
783.173	-1.92
783.922	6.28
784.67	16.53
785.418	7.3
786.166	5.25
786.914	24.73
787.661	15.5
788.409	5.25
789.157	24.73
789.904	-0.9
790.652	17.55
791.399	18.58
792.147	1.15
792.894	8.33
793.641	4.23
794.388	334.69
795.136	22.68
795.883	26.78
796.629	5.25
797.376	-14.22
798.123	6.28
798.87	11.4
799.616	-18.32
800.363	5.25
801.109	-7.05
801.856	-10.12
802.602	-6.02
803.349	-2.95
804.095	-14.22
804.841	-19.35
805.587	-9.1
806.333	-8.07
807.079	5.25
807.825	-2.95
808.57	-20.37
809.316	-9.1
810.062	-23.45
810.807	-11.15
811.553	-8.07
812.298	-17.3
813.043	-18.32
813.788	-9.1
814.534	-7.05
815.279	-1.92
816.024	-20.37
816.769	-8.07
817.514	-11.15
818.258	-6.02
819.003	-10.12
819.748	-480.49
820.492	12.43
821.237	-72.18
821.981	1.15
822.726	-22.42
823.47	-26.52
824.214	-15.25
824.958	-19.35
825.702	-30.62
826.446	-28.57
827.19	8.33
827.934	-24.47
828.678	-6.02
829.421	-8.07
830.165	-13.2
830.909	-3.97
831.652	-15.25
832.395	-21.4
833.139	-9.1
833.882	-20.37
834.625	-6.02
835.368	-13.2
836.111	-12.17
836.854	-29.6
837.597	-17.3
838.34	-13.2
839.083	-5
839.825	-10.12
840.568	-0.9
841.311	-31.65
842.053	-14.22
842.795	-22.43
843.538	-1.92
844.28	-17.3
845.022	-15.25
845.764	-31.64
846.506	-6.02
847.248	-20.37
847.99	-12.17
848.732	-19.35
849.474	-24.47
850.215	-9.1
850.957	-39.86
851.698	-7.05
852.44	-13.2
853.181	-12.17
853.922	-11.15
854.664	-0.9
855.405	-17.3
856.146	-23.45
856.887	-6.02
857.628	-26.52
858.369	6.28
859.109	-22.42
859.85	-21.4
860.591	-18.32
861.331	-24.48
862.072	-9.1
862.812	-10.12
863.553	-14.22
864.293	-27.55
865.033	-22.42
865.773	-6.02
866.513	-3.97
867.253	-13.2
867.993	5.25
868.733	-22.42
869.473	-32.67
870.213	-41.89
870.952	-18.33
871.692	-26.52
872.431	-5
873.171	-12.17
873.91	-0.9
874.649	-19.35
875.388	-21.4
876.128	-15.25
876.867	-21.4
877.606	-25.5
878.345	-16.27
879.083	-10.12
879.822	-27.55
880.561	-23.45
881.299	-24.47
882.038	-14.22
882.777	15.5
883.515	-21.4
884.253	8.23
884.992	-26.52
885.73	-12.17
886.468	6.28
887.206	-10.12
887.944	-23.45
888.682	-22.42
889.42	-24.47
890.157	-2.95
890.895	3.2
891.633	-27.52
892.37	-25.5
893.108	-24.47
893.845	-28.57
894.583	-15.25
895.32	-6.02
896.057	-13.2
896.794	-17.3
897.531	-30.62
898.268	-16.27
899.005	-17.3
899.742	-18.32
900.479	-31.65
901.215	-3.97
901.952	-24.47
902.689	-19.35
903.425	-9.1
904.162	-11.15
904.898	-10.12
905.634	-34.72
906.37	-22.42
907.106	-7.05
907.843	-16.27
908.579	-15.25
909.314	-5
910.05	-18.32
910.786	-13.2
911.522	-21.4
912.257	-38.82
912.993	-1.92
913.728	-3.97
914.464	-10.12
915.199	-21.4
915.935	-22.43
916.67	-26.52
917.405	-17.3
918.14	-33.7
918.875	-11.15
919.61	-11.15
920.345	-27.55
921.08	-39.84
921.814	-7.05
922.549	-5
923.284	-24.47
924.018	-9.1
924.752	-32.67
925.487	-18.32
926.221	-15.25
926.955	-29.6
927.69	-14.22
928.424	-30.63
929.158	-13.2
929.892	-18.32
930.625	-6.02
931.359	-3.97
932.093	1.15
932.827	-12.17
933.56	-19.35
934.294	-22.43
935.027	3.2
935.761	-25.5
936.494	-16.27
937.227	-37.8
937.96	-27.55
938.693	-11.15
939.426	-14.22
940.159	-28.57
940.892	-15.25
941.625	-13.2
942.358	-17.3
943.091	-26.52
943.823	-15.25
944.556	-7.05
945.288	-8.07
946.021	-22.42
946.753	-13.2
947.485	-29.6
948.217	-13.2
948.95	-33.7
949.682	-0.9
950.414	-20.38
951.146	-32.67
951.877	-8.07
952.609	12.43
953.341	-16.27
954.073	-16.27
954.804	-22.42
955.536	-19.35
956.267	-31.65
956.998	-10.12
957.73	-35.75
958.461	-20.38
959.192	-9.1
959.923	-19.35
960.654	-3.97
961.385	18.58
962.116	-16.27
962.847	-10.12
963.578	-12.17
964.308	-18.32
965.039	-7.05
965.769	-25.5
966.5	-17.3
967.23	-19.35
967.961	-11.15
968.691	-34.72
969.421	-13.2
970.151	-34.72
970.881	-23.45
971.611	-34.72
972.341	-22.42
973.071	-27.55
973.801	-8.07
974.53	-18.32
975.26	-24.47
975.99	-33.7
976.719	-19.35
977.448	-11.15
978.178	-21.4
978.907	-5
979.636	-15.25
980.365	-13.2
981.095	-9.1
981.824	-17.3
982.553	-13.2
983.281	-24.48
984.01	-1.92
984.739	8.34
985.468	-18.34
986.196	0.13
986.925	-10.12
987.653	-7.05
988.382	-8.07
989.11	-13.2
989.838	6.28
990.566	16.53
991.295	-20.37
992.023	-12.17
992.751	-6.02
993.478	-6.02
994.206	-12.17
994.934	-18.32
995.662	-5
996.389	10.39
997.117	-5
997.845	11.41
