Data from SampleKW32_Subt2_011.txt Node
Date: Fri Aug 23 09:22:36 EDT 2019
User: wcc
Spectrometer: QEPB0759
Trigger mode: 0
Integration Time (sec): 1.000000E0
Scans to average: 1
Electric dark correction enabled: true
Nonlinearity correction enabled: true
Boxcar width: 0
XAxis mode: Wavelengths
Number of Pixels in Spectrum: 1044
>>>>>Begin Spectral Data<<<<<
197.938	1.15
198.749	-2.95
199.559	-10.12
200.369	8.33
201.179	1.15
201.988	-16.27
202.798	-5
203.608	-25.5
204.417	-12.17
205.227	3.2
206.036	2.18
206.846	-19.35
207.655	-11.15
208.464	-11.15
209.273	4.23
210.082	-14.22
210.891	-6.02
211.7	-6.02
212.508	-18.32
213.317	0.13
214.125	-0.9
214.934	-3.97
215.742	-8.07
216.55	10.38
217.359	-13.2
218.167	-14.22
218.975	-17.3
219.782	3.2
220.59	-29.6
221.398	-9.1
222.206	-10.12
223.013	10.38
223.82	0.13
224.628	-10.12
225.435	14.48
226.242	-15.25
227.049	-7.05
227.856	6.28
228.663	1.15
229.47	-0.9
230.277	-10.12
231.083	-2.95
231.89	-13.2
232.696	-20.37
233.502	12.43
234.309	-0.9
235.115	-15.25
235.921	-7.05
236.727	-18.33
237.533	-15.25
238.339	-22.42
239.144	-8.07
239.95	-3.97
240.756	-2.95
241.561	-20.37
242.366	-21.4
243.172	-6.02
243.977	7.3
244.782	-18.32
245.587	-0.9
246.392	-5
247.197	-7.05
248.001	-1.92
248.806	0.13
249.611	2.18
250.415	-9.1
251.219	-13.2
252.024	-3.97
252.828	-9.1
253.632	0.13
254.436	11.41
255.24	-22.42
256.044	7.3
256.848	3.2
257.651	-24.48
258.455	-27.55
259.258	-14.22
260.062	-96.53
260.865	-16.27
261.668	2.18
262.471	-22.42
263.274	-19.35
264.077	-5
264.88	-11.15
265.683	-6.02
266.486	-6.02
267.288	-0.9
268.091	18.58
268.893	-30.62
269.696	-9.1
270.498	0.13
271.3	-18.32
272.102	-3.97
272.904	-27.55
273.706	8.33
274.508	-5
275.309	-17.3
276.111	4.23
276.913	2.18
277.714	-11.15
278.515	-11.15
279.317	5.25
280.118	-3.97
280.919	-3.97
281.72	-3.97
282.521	-25.5
283.322	-10.12
284.122	-1.92
284.923	-21.4
285.724	-5
286.524	-7.05
287.325	-29.6
288.125	-28.58
288.925	-0.9
289.725	-23.45
290.525	-5
291.325	-23.45
292.125	-14.22
292.925	-20.37
293.724	-19.35
294.524	-31.65
295.324	11.4
296.123	-16.27
296.922	-10.12
297.722	7.3
298.521	-14.22
299.32	8.33
300.119	-11.15
300.918	-14.22
301.716	0.13
302.515	-20.37
303.314	-5
304.112	-20.37
304.911	-11.15
305.709	-15.25
306.507	-9.1
307.306	-24.47
308.104	-29.6
308.902	-16.27
309.7	-19.35
310.498	-21.4
311.295	-0.9
312.093	-17.3
312.891	-10.12
313.688	-17.3
314.485	-13.2
315.283	-2.95
316.08	-9.1
316.877	-15.25
317.674	-20.37
318.471	-25.5
319.268	-14.22
320.065	-8.07
320.862	-26.52
321.658	1.15
322.455	7.3
323.251	-19.35
324.047	-10.12
324.844	-9.1
325.64	-0.9
326.436	-11.15
327.232	-13.2
328.028	-16.27
328.824	-5
329.62	-5
330.415	-15.25
331.211	-11.15
332.006	-2.95
332.802	-21.4
333.597	-15.25
334.392	-7.05
335.187	-5
335.982	2.18
336.777	4.23
337.572	-25.5
338.367	-19.35
339.162	-22.42
339.956	7.3
340.751	-12.17
341.545	-25.5
342.34	-16.27
343.134	-1.92
343.928	-11.15
344.722	-9.1
345.516	-13.2
346.31	-33.7
347.104	-17.3
347.898	-7.05
348.691	-21.4
349.485	-7.05
350.278	-25.5
351.072	-8.07
351.865	7.22
352.658	6.28
353.452	-6.02
354.245	-1.92
355.038	-7.05
355.83	-5
356.623	-18.32
357.416	-7.05
358.209	-2.95
359.001	-18.32
359.794	-1.92
360.586	-17.3
361.378	-18.32
362.17	-15.25
362.963	-27.55
363.755	-2.95
364.546	-18.33
365.338	-13.2
366.13	-2.95
366.922	-16.27
367.713	-5
368.505	-18.32
369.296	0.13
370.088	-7.05
370.879	-17.3
371.67	1.15
372.461	1.15
373.252	13.45
374.043	2.18
374.834	2.18
375.625	25.75
376.415	2.18
377.206	23.7
377.996	44.2
378.787	52.4
379.577	50.36
380.367	71.89
381.157	99.55
381.947	140.55
382.737	164.11
383.527	190.75
384.317	204.05
385.107	273.77
385.896	279.86
386.686	332.13
387.475	385.38
388.265	455.07
389.054	510.16
389.843	581.02
390.632	673.12
391.421	720.19
392.21	800.01
392.999	889.15
393.788	985.25
394.576	1072.14
395.365	1158.03
396.154	1274.7
396.942	1361.65
397.73	1464.75
398.519	1548.55
399.307	1670.09
400.095	1719.08
400.883	1831.18
401.671	1936.63
402.459	2016.21
403.246	2136.78
404.034	2294.88
404.822	2378.44
405.609	2487.28
406.396	2613.59
407.184	2694.74
407.971	2772.74
408.758	2861.39
409.545	2932.51
410.332	2977.4
411.119	3078.33
411.906	3183.69
412.693	3286.98
413.479	3402.93
414.266	3584.39
415.052	3759.89
415.839	3992.91
416.625	4187.05
417.411	4490.53
418.197	4729.41
418.983	4941.96
419.769	5066.28
420.555	5077.75
421.341	4991.69
422.127	4933.73
422.912	4896.36
423.698	4918.94
424.483	4852.72
425.269	4953.3
426.054	5004.45
426.839	5147.46
427.624	5288.93
428.409	5468.01
429.194	5779.87
429.979	6006.36
430.764	6257.14
431.549	6551.54
432.333	6800.08
433.118	7094.94
433.902	7282.11
434.687	7488.44
435.471	7668.51
436.255	7902.82
437.039	8194.96
437.823	8409.01
438.607	8571.55
439.391	8633.29
440.175	8795.66
440.958	8951.25
441.742	9167.4
442.526	9357.52
443.309	9551.26
444.092	9829.98
444.876	10051.05
445.659	10240.31
446.442	10506.16
447.225	10740.5
448.008	11162.52
448.791	12076.53
449.573	13332
450.356	13492.52
451.139	13090.29
451.921	13350.46
452.704	13285.17
453.486	12994.46
454.268	13289.58
455.05	13594.85
455.833	14037.3
456.615	14431.7
457.396	14917.02
458.178	15142.08
458.96	15080.17
459.742	14967.11
460.523	15183.05
461.305	15529.43
462.086	15934.51
462.868	16062.07
463.649	15775.2
464.43	15455.38
465.211	15411.63
465.992	16002.81
466.773	17066.99
467.554	17855.22
468.335	17670.35
469.115	16932.37
469.896	16115.14
470.676	15325.72
471.457	15058.3
472.237	15738.81
473.018	16340.58
473.798	15109.09
474.578	13538.3
475.358	12759.18
476.138	12281.41
476.918	11908.42
477.697	11599.81
478.477	11365.21
479.257	11314.26
480.036	11459.55
480.816	11488.04
481.595	11280.6
482.374	10765.56
483.153	10290.43
483.932	9695.99
484.711	9074.5
485.49	8524.47
486.269	8154.37
487.048	7836.02
487.827	7547.46
488.605	7312.01
489.384	7116.35
490.162	6999.63
490.941	7075.64
491.719	7121.49
492.497	6827.24
493.275	6402.93
494.053	5940.26
494.831	5545.12
495.609	5193.22
496.387	4904.96
497.164	4606.91
497.942	4355.34
498.72	4123.01
499.497	3862.79
500.274	3594.99
501.052	3364.56
501.829	3136.35
502.606	2885.16
503.383	2614.88
504.16	2410
504.937	2137.58
505.714	1914.36
506.49	1714.9
507.267	1497.67
508.043	1303.23
508.82	1123.14
509.596	998.68
510.373	830.78
511.149	699.83
511.925	593.29
512.701	520.59
513.477	417.1
514.253	351.59
515.029	277.84
515.804	243
516.58	178.43
517.356	156.94
518.131	135.4
518.906	126.21
519.682	110.82
520.457	87.25
521.232	82.13
522.007	61.63
522.782	57.53
523.557	74.96
524.332	32.93
525.107	46.25
525.881	34.98
526.656	47.29
527.43	23.71
528.205	5.25
528.979	27.81
529.753	41.13
530.527	32.93
531.302	42.16
532.076	3.2
532.849	29.86
533.623	16.53
534.397	26.78
535.171	27.8
535.944	29.85
536.718	-3.97
537.491	14.48
538.265	8.33
539.038	7.3
539.811	6.28
540.584	-9.1
541.357	-20.37
542.13	-24.47
542.903	-16.27
543.676	-22.42
544.449	-23.45
545.221	-33.69
545.994	1.15
546.766	7.3
547.539	3.2
548.311	-14.22
549.083	5.25
549.855	-7.05
550.627	-2.95
551.399	6.28
552.171	-6.02
552.943	9.35
553.715	11.4
554.486	19.6
555.258	18.58
556.029	13.45
556.801	22.68
557.572	23.71
558.343	21.66
559.114	4.23
559.886	14.48
560.657	42.16
561.427	32.93
562.198	24.73
562.969	21.65
563.74	37.03
564.51	29.86
565.281	16.53
566.051	37.03
566.822	19.6
567.592	23.7
568.362	30.88
569.132	29.85
569.902	12.43
570.672	42.16
571.442	13.45
572.212	16.53
572.982	31.9
573.751	28.83
574.521	29.85
575.29	34.97
576.06	23.7
576.829	27.8
577.598	26.78
578.367	11.4
579.136	34.98
579.905	22.68
580.674	23.7
581.443	16.53
582.212	23.7
582.981	25.75
583.749	37.03
584.518	44.2
585.286	59.57
586.054	29.85
586.823	55.47
587.591	53.43
588.359	74.94
589.127	107.74
589.895	140.52
590.663	170.23
591.431	244.01
592.198	357.71
592.966	510.29
593.734	702.69
594.501	1018.99
595.268	1421.84
596.036	1894.43
596.803	2559
597.57	3341.11
598.337	4263.13
599.104	5358.38
599.871	6636.85
600.638	7941.85
601.405	9499.12
602.171	11118.48
602.938	12771.65
603.704	14555.62
604.471	16204.22
605.237	17978.74
606.004	19710.97
606.77	21409.73
607.536	22992.77
608.302	24651.91
609.068	26184.45
609.834	27618.45
610.599	28943.38
611.365	30234.35
612.131	31422.11
612.896	32583.26
613.662	33639.8
614.427	34421.64
615.193	35273.24
615.958	35940.06
616.723	36582.09
617.488	37116.96
618.253	37625.32
619.018	37981.68
619.783	38270.44
620.548	38634.32
621.312	38802.37
622.077	39119.75
622.842	39153.43
623.606	39213.37
624.37	39353.95
625.135	39383.44
625.899	39337.87
626.663	39180.99
627.427	38936.42
628.191	38868.43
628.955	38753.41
629.719	38603.99
630.483	38487.73
631.246	38101.21
632.01	37846.01
632.773	37517.04
633.537	37107.69
634.3	36763.88
635.063	36385.46
635.827	36006
636.59	35662.63
637.353	35275.36
638.116	34983.27
638.879	34625.56
639.641	34232.71
640.404	33817.29
641.167	33434.4
641.929	33109.33
642.692	32751.93
643.454	32494.15
644.216	32247.57
644.979	31935
645.741	31660.84
646.503	31496.51
647.265	31372.88
648.027	31079.45
648.789	30867.23
649.551	30686
650.312	30104.6
651.074	29482.68
651.835	29011.29
652.597	28625.91
653.358	28246.11
654.12	27998.71
654.881	27728.72
655.642	27454.53
656.403	27310.12
657.164	27079.26
657.925	26993.8
658.686	26916.66
659.447	26864.84
660.207	26871.03
660.968	26821.48
661.728	26864.22
662.489	26886.48
663.249	26993.35
664.01	27051.56
664.77	27133.02
665.53	27191.87
666.29	27260.2
667.05	27310.02
667.81	27392.84
668.57	27484.77
669.329	27481.21
670.089	27524.85
670.849	27584.6
671.608	27710.74
672.368	27613.39
673.127	27562.7
673.886	27585.72
674.646	27499.65
675.405	27401.15
676.164	27325.85
676.923	27108.4
677.682	26909.1
678.44	26811.03
679.199	26725.84
679.958	26670.45
680.717	26788.25
681.475	27124.83
682.233	27849.81
682.992	27914.08
683.75	27188.91
684.508	26467.03
685.266	25893.31
686.024	25388.44
686.782	24992.48
687.54	24719.64
688.298	24342.84
689.056	23924.33
689.814	23468.43
690.571	22998.95
691.329	22466.71
692.086	21951.55
692.843	21527.97
693.601	21102.99
694.358	20546.56
695.115	20079.05
695.872	19785.11
696.629	19503.16
697.386	19190.55
698.143	18856.92
698.9	18570.54
699.656	18414.21
700.413	18234.08
701.169	18030.55
701.926	17878.74
702.682	17709.02
703.438	17575.12
704.195	17382.83
704.951	17234.76
705.707	17099.76
706.463	17055.08
707.219	16944.47
707.974	16910.5
708.73	16923.41
709.486	16902.52
710.241	16787.33
710.997	16729.99
711.752	16552.38
712.508	16325.26
713.263	15966.36
714.018	15575.95
714.773	15149.18
715.528	14691.86
716.283	14194.55
717.038	13767.14
717.793	13276.74
718.548	12726.87
719.303	12263.2
720.057	11721.43
720.812	11254.92
721.566	10850.08
722.321	10466.09
723.075	10174.23
723.829	9899.75
724.583	9676.85
725.337	9470.43
726.091	9252.97
726.845	9110.67
727.599	9013.47
728.353	8887.41
729.106	8704.19
729.86	8648.76
730.614	8628.44
731.367	8859.74
732.12	8720.62
732.874	8629.48
733.627	8182.26
734.38	7770.82
735.133	7334.28
735.886	7035.86
736.639	6764.92
737.392	6582.84
738.145	6519.95
738.897	6410.44
739.65	6324.21
740.403	6186.33
741.155	6032.39
741.907	5721.9
742.66	5278.53
743.412	4741.72
744.164	4085.14
744.916	3361.02
745.668	2526.22
746.42	1647.34
747.172	990.37
747.924	494.99
748.676	254.31
749.427	160.01
750.179	119.01
750.93	105.69
751.682	84.19
752.433	68.8
753.184	65.72
753.935	62.66
754.687	47.28
755.438	49.33
756.189	59.58
756.939	47.28
757.69	42.16
758.441	44.2
759.192	43.18
759.942	57.52
760.693	26.78
761.443	41.13
762.194	49.33
762.944	45.23
763.694	50.35
764.444	50.36
765.194	45.23
765.944	37.03
766.694	29.85
767.444	30.88
768.194	36
768.943	16.53
769.693	5.25
770.443	22.68
771.192	-12.17
771.941	15.51
772.691	7.3
773.44	3.2
774.189	25.75
774.938	10.38
775.687	17.55
776.436	7.3
777.185	-1.92
777.934	14.48
778.683	15.5
779.431	16.53
780.18	-3.97
780.928	9.35
781.677	7.3
782.425	6.28
783.173	-6.02
783.922	2.18
784.67	19.6
785.418	0.13
786.166	21.65
786.914	15.51
787.661	7.3
788.409	-1.92
789.157	5.25
789.904	1.15
790.652	13.45
791.399	-2.95
792.147	10.38
792.894	13.45
793.641	12.43
794.388	186.25
795.136	4.23
795.883	22.68
796.629	1.15
797.376	-20.38
798.123	10.38
798.87	9.35
799.616	-29.6
800.363	10.38
801.109	-3.97
801.856	-2.95
802.602	-11.15
803.349	-0.9
804.095	-21.39
804.841	-9.1
805.587	-8.07
806.333	2.18
807.079	-9.1
807.825	9.35
808.57	-10.12
809.316	-6.02
810.062	-26.52
810.807	-9.1
811.553	4.23
812.298	-10.12
813.043	2.18
813.788	-14.22
814.534	13.45
815.279	-2.95
816.024	-10.12
816.769	-5
817.514	-8.07
818.258	-14.22
819.003	-6.02
819.748	-458.41
820.492	1.15
821.237	-90.51
821.981	-11.15
822.726	-18.32
823.47	-16.27
824.214	-10.12
824.958	-40.87
825.702	-29.6
826.446	-27.55
827.19	-1.92
827.934	-11.15
828.678	-12.17
829.421	-20.37
830.165	-19.35
830.909	-15.25
831.652	-14.22
832.395	-22.42
833.139	-6.02
833.882	-33.69
834.625	-15.25
835.368	-23.45
836.111	-9.1
836.854	-30.62
837.597	-17.3
838.34	-26.52
839.083	1.15
839.825	-23.45
840.568	2.18
841.311	-8.07
842.053	-18.32
842.795	-3.97
843.538	-16.27
844.28	-12.17
845.022	-2.95
845.764	-25.49
846.506	-5
847.248	-34.72
847.99	-18.32
848.732	-1.92
849.474	-27.55
850.215	-15.25
850.957	-22.43
851.698	-15.25
852.44	-14.22
853.181	-12.17
853.922	-8.07
854.664	-5
855.405	-15.25
856.146	-13.2
856.887	-11.15
857.628	-23.45
858.369	-7.05
859.109	-27.55
859.85	-14.22
860.591	-14.22
861.331	-7.05
862.072	-8.07
862.812	-9.1
863.553	-14.22
864.293	-27.55
865.033	-16.27
865.773	-2.95
866.513	-14.22
867.253	-8.07
867.993	-1.92
868.733	-20.37
869.473	-10.12
870.213	-29.6
870.952	-17.3
871.692	-29.6
872.431	-8.07
873.171	-26.52
873.91	-5
874.649	-13.2
875.388	-10.12
876.128	-14.22
876.867	-32.68
877.606	-20.37
878.345	-12.17
879.083	-23.45
879.822	-16.27
880.561	-31.65
881.299	-22.42
882.038	-17.3
882.777	12.43
883.515	-18.32
884.253	-19.12
884.992	-19.35
885.73	-18.32
886.468	-7.05
887.206	-6.02
887.944	-27.55
888.682	-31.65
889.42	-7.05
890.157	-16.27
890.895	-10.12
891.633	-36.74
892.37	-35.75
893.108	-21.4
893.845	-10.12
894.583	-20.37
895.32	1.15
896.057	-24.48
896.794	-8.07
897.531	-32.67
898.268	-24.47
899.005	-37.8
899.742	-12.17
900.479	-26.52
901.215	-12.17
901.952	-26.53
902.689	-15.25
903.425	-10.12
904.162	-2.95
904.898	-20.37
905.634	-19.35
906.37	-25.5
907.106	-7.05
907.843	-12.17
908.579	-10.12
909.314	-7.05
910.05	-19.35
910.786	-21.4
911.522	-20.38
912.257	-28.57
912.993	-10.12
913.728	3.2
914.464	-27.55
915.199	-15.25
915.935	-18.33
916.67	-30.63
917.405	-32.67
918.14	-26.52
918.875	-14.22
919.61	-17.3
920.345	-21.4
921.08	-42.92
921.814	-13.2
922.549	-11.15
923.284	-20.37
924.018	-18.32
924.752	-42.92
925.487	-24.47
926.221	-11.15
926.955	-10.12
927.69	-8.07
928.424	-23.45
929.158	-33.7
929.892	-21.4
930.625	-10.12
931.359	-19.35
932.093	-9.1
932.827	-10.12
933.56	-29.6
934.294	-2.95
935.027	-5
935.761	-23.45
936.494	-5
937.227	-41.9
937.96	-14.22
938.693	-25.5
939.426	-19.35
940.159	-29.6
940.892	-12.17
941.625	-15.25
942.358	-27.55
943.091	-27.55
943.823	-29.6
944.556	-16.28
945.288	1.15
946.021	-17.3
946.753	-7.05
947.485	-18.32
948.217	-2.95
948.95	-28.57
949.682	-9.1
950.414	-21.4
951.146	-24.47
951.877	-19.35
952.609	19.61
953.341	-22.42
954.073	-29.6
954.804	-13.2
955.536	-25.5
956.267	-31.65
956.998	-2.95
957.73	-23.45
958.461	-24.48
959.192	-15.25
959.923	-26.52
960.654	1.15
961.385	-7.05
962.116	-24.47
962.847	-14.22
963.578	-19.35
964.308	-28.58
965.039	-20.38
965.769	-22.42
966.5	-9.1
967.23	-7.05
967.961	-17.3
968.691	-31.65
969.421	-23.45
970.151	-27.55
970.881	-33.7
971.611	-29.6
972.341	-22.42
973.071	-24.47
973.801	-10.12
974.53	-9.1
975.26	-35.75
975.99	-20.37
976.719	-25.5
977.448	-8.07
978.178	-18.32
978.907	2.18
979.636	-16.27
980.365	-27.55
981.095	5.25
981.824	-35.75
982.553	-16.27
983.281	-28.58
984.01	1.15
984.739	7.31
985.468	-8.08
986.196	5.26
986.925	-15.24
987.653	-10.12
988.382	-13.2
989.11	-15.25
989.838	-5
990.566	-0.9
991.295	-15.25
992.023	-23.45
992.751	-0.9
993.478	-12.17
994.206	-10.12
994.934	-18.32
995.662	-1.92
996.389	-5
997.117	1.15
997.845	0.13
