Data from Sample_Subt2_007.txt Node
Date: Tue Aug 27 12:41:03 EDT 2019
User: wcc
Spectrometer: QEPB0759
Trigger mode: 0
Integration Time (sec): 1.000000E0
Scans to average: 1
Electric dark correction enabled: true
Nonlinearity correction enabled: false
Boxcar width: 0
XAxis mode: Wavelengths
Number of Pixels in Spectrum: 1044
>>>>>Begin Spectral Data<<<<<
197.938	26.88
198.749	42.88
199.559	39.88
200.369	28.88
201.179	23.88
201.988	35.88
202.798	43.88
203.608	18.88
204.417	32.88
205.227	20.88
206.036	38.88
206.846	39.88
207.655	30.88
208.464	29.88
209.273	29.88
210.082	32.88
210.891	32.88
211.7	27.88
212.508	40.88
213.317	27.88
214.125	26.88
214.934	45.88
215.742	25.88
216.55	29.88
217.359	24.88
218.167	31.88
218.975	36.88
219.782	31.88
220.59	22.88
221.398	22.88
222.206	28.88
223.013	30.88
223.82	37.88
224.628	23.88
225.435	35.88
226.242	22.88
227.049	18.88
227.856	20.88
228.663	38.88
229.47	35.88
230.277	24.88
231.083	30.88
231.89	27.88
232.696	35.88
233.502	43.88
234.309	31.88
235.115	25.88
235.921	22.88
236.727	29.88
237.533	37.88
238.339	41.88
239.144	28.88
239.95	27.88
240.756	26.88
241.561	30.88
242.366	39.88
243.172	35.88
243.977	26.88
244.782	39.88
245.587	29.88
246.392	29.88
247.197	10.88
248.001	40.88
248.806	33.88
249.611	27.88
250.415	29.88
251.219	29.88
252.024	25.88
252.828	29.88
253.632	24.88
254.436	32.88
255.24	33.88
256.044	28.88
256.848	24.88
257.651	30.88
258.455	30.88
259.258	35.88
260.062	-653.12
260.865	20.88
261.668	20.88
262.471	21.88
263.274	22.88
264.077	14.88
264.88	15.88
265.683	22.88
266.486	4.88
267.288	20.88
268.091	29.88
268.893	23.88
269.696	34.88
270.498	35.88
271.3	26.88
272.102	24.88
272.904	23.88
273.706	18.88
274.508	23.88
275.309	43.88
276.111	37.88
276.913	27.88
277.714	31.88
278.515	26.88
279.317	27.88
280.118	33.88
280.919	22.88
281.72	27.88
282.521	36.88
283.322	22.88
284.122	18.88
284.923	17.88
285.724	27.88
286.524	35.88
287.325	43.88
288.125	24.88
288.925	32.88
289.725	18.88
290.525	24.88
291.325	19.88
292.125	15.88
292.925	24.88
293.724	33.88
294.524	16.88
295.324	29.88
296.123	19.88
296.922	28.88
297.722	27.88
298.521	26.88
299.32	23.88
300.119	16.88
300.918	29.88
301.716	21.88
302.515	28.88
303.314	29.88
304.112	22.88
304.911	23.88
305.709	27.88
306.507	25.88
307.306	21.88
308.104	25.88
308.902	22.88
309.7	29.88
310.498	34.88
311.295	21.88
312.093	29.88
312.891	10.88
313.688	34.88
314.485	17.88
315.283	31.88
316.08	24.88
316.877	25.88
317.674	10.88
318.471	33.88
319.268	26.88
320.065	24.88
320.862	21.88
321.658	28.88
322.455	31.88
323.251	25.88
324.047	38.88
324.844	27.88
325.64	19.88
326.436	18.88
327.232	23.88
328.028	25.88
328.824	40.88
329.62	43.88
330.415	23.88
331.211	22.88
332.006	24.88
332.802	21.88
333.597	35.88
334.392	31.88
335.187	25.88
335.982	17.88
336.777	30.88
337.572	34.88
338.367	25.88
339.162	25.88
339.956	23.88
340.751	25.88
341.545	35.88
342.34	13.88
343.134	24.88
343.928	29.88
344.722	30.88
345.516	24.88
346.31	19.88
347.104	34.88
347.898	41.88
348.691	23.88
349.485	30.88
350.278	22.88
351.072	32.88
351.865	113.88
352.658	35.88
353.452	20.88
354.245	16.88
355.038	29.88
355.83	27.88
356.623	38.88
357.416	22.88
358.209	24.88
359.001	22.88
359.794	33.88
360.586	36.88
361.378	41.88
362.17	10.88
362.963	21.88
363.755	21.88
364.546	18.88
365.338	20.88
366.13	31.88
366.922	29.88
367.713	36.88
368.505	28.88
369.296	30.88
370.088	42.88
370.879	35.88
371.67	30.88
372.461	30.88
373.252	28.88
374.043	40.88
374.834	42.88
375.625	60.88
376.415	36.88
377.206	59.88
377.996	68.88
378.787	73.88
379.577	88.88
380.367	99.88
381.157	123.88
381.947	138.88
382.737	154.88
383.527	187.88
384.317	214.88
385.107	234.88
385.896	268.88
386.686	311.88
387.475	362.88
388.265	409.88
389.054	456.88
389.843	508.88
390.632	578.88
391.421	639.88
392.21	696.88
392.999	745.88
393.788	833.88
394.576	912.88
395.365	998.88
396.154	1069.88
396.942	1152.88
397.73	1232.88
398.519	1296.88
399.307	1358.88
400.095	1438.88
400.883	1503.88
401.671	1608.88
402.459	1694.88
403.246	1779.88
404.034	1878.88
404.822	1945.88
405.609	2014.88
406.396	2087.88
407.184	2141.88
407.971	2206.88
408.758	2252.88
409.545	2297.88
410.332	2391.88
411.119	2460.88
411.906	2560.88
412.693	2642.88
413.479	2810.88
414.266	2943.88
415.052	3100.88
415.839	3263.88
416.625	3420.88
417.411	3603.88
418.197	3779.88
418.983	3910.88
419.769	3930.88
420.555	3886.88
421.341	3846.88
422.127	3805.88
422.912	3792.88
423.698	3780.88
424.483	3805.88
425.269	3854.88
426.054	3961.88
426.839	4086.88
427.624	4213.88
428.409	4393.88
429.194	4569.88
429.979	4812.88
430.764	4993.88
431.549	5173.88
432.333	5351.88
433.118	5539.88
433.902	5657.88
434.687	5814.88
435.471	5950.88
436.255	6105.88
437.039	6296.88
437.823	6454.88
438.607	6567.88
439.391	6631.88
440.175	6748.88
440.958	6920.88
441.742	7084.88
442.526	7230.88
443.309	7417.88
444.092	7599.88
444.876	7806.88
445.659	7990.88
446.442	8130.88
447.225	8342.88
448.008	8810.88
448.791	9672.88
449.573	10381.88
450.356	10463.88
451.139	10345.88
451.921	10408.88
452.704	10333.88
453.486	10231.88
454.268	10426.88
455.05	10673.88
455.833	10908.88
456.615	11275.88
457.396	11543.88
458.178	11614.88
458.96	11567.88
459.742	11484.88
460.523	11627.88
461.305	11835.88
462.086	12126.88
462.868	12164.88
463.649	11889.88
464.43	11707.88
465.211	11714.88
465.992	12240.88
466.773	13069.88
467.554	13543.88
468.335	13241.88
469.115	12650.88
469.896	11973.88
470.676	11460.88
471.457	11350.88
472.237	11915.88
473.018	12033.88
473.798	10977.88
474.578	9958.88
475.358	9373.88
476.138	9001.88
476.918	8667.88
477.697	8426.88
478.477	8328.88
479.257	8278.88
480.036	8370.88
480.816	8316.88
481.595	8126.88
482.374	7762.88
483.153	7406.88
483.932	7007.88
484.711	6518.88
485.49	6218.88
486.269	5902.88
487.048	5697.88
487.827	5477.88
488.605	5307.88
489.384	5184.88
490.162	5102.88
490.941	5128.88
491.719	5156.88
492.497	4923.88
493.275	4581.88
494.053	4274.88
494.831	3985.88
495.609	3729.88
496.387	3538.88
497.164	3339.88
497.942	3142.88
498.72	2955.88
499.497	2766.88
500.274	2578.88
501.052	2417.88
501.829	2259.88
502.606	2084.88
503.383	1897.88
504.16	1742.88
504.937	1559.88
505.714	1407.88
506.49	1246.88
507.267	1097.88
508.043	979.88
508.82	852.88
509.596	715.88
510.373	616.88
511.149	537.88
511.925	455.88
512.701	392.88
513.477	326.88
514.253	272.88
515.029	244.88
515.804	209.88
516.58	189.88
517.356	155.88
518.131	145.88
518.906	124.88
519.682	99.88
520.457	91.88
521.232	83.88
522.007	81.88
522.782	77.88
523.557	63.88
524.332	73.88
525.107	71.88
525.881	56.88
526.656	55.88
527.43	59.88
528.205	59.88
528.979	68.88
529.753	62.88
530.527	66.88
531.302	57.88
532.076	48.88
532.849	40.88
533.623	56.88
534.397	52.88
535.171	55.88
535.944	63.88
536.718	63.88
537.491	59.88
538.265	59.88
539.038	48.88
539.811	58.88
540.584	38.88
541.357	41.88
542.13	57.88
542.903	53.88
543.676	44.88
544.449	44.88
545.221	34.88
545.994	55.88
546.766	42.88
547.539	39.88
548.311	49.88
549.083	41.88
549.855	46.88
550.627	52.88
551.399	55.88
552.171	41.88
552.943	57.88
553.715	52.88
554.486	55.88
555.258	33.88
556.029	41.88
556.801	52.88
557.572	54.88
558.343	40.88
559.114	42.88
559.886	46.88
560.657	48.88
561.427	56.88
562.198	48.88
562.969	49.88
563.74	57.88
564.51	45.88
565.281	54.88
566.051	46.88
566.822	58.88
567.592	54.88
568.362	44.88
569.132	53.88
569.902	53.88
570.672	55.88
571.442	46.88
572.212	56.88
572.982	53.88
573.751	57.88
574.521	71.88
575.29	52.88
576.06	57.88
576.829	49.88
577.598	62.88
578.367	51.88
579.136	52.88
579.905	52.88
580.674	67.88
581.443	76.88
582.212	63.88
582.981	72.88
583.749	60.88
584.518	81.88
585.286	66.88
586.054	83.88
586.823	82.88
587.591	78.88
588.359	116.88
589.127	116.88
589.895	128.88
590.663	179.88
591.431	229.88
592.198	302.88
592.966	411.88
593.734	568.88
594.501	779.88
595.268	1098.88
596.036	1484.88
596.803	1953.88
597.57	2559.88
598.337	3257.88
599.104	4089.88
599.871	5054.88
600.638	6117.88
601.405	7278.88
602.171	8530.88
602.938	9763.88
603.704	11110.88
604.471	12533.88
605.237	13855.88
606.004	15186.88
606.77	16539.88
607.536	17849.88
608.302	19104.88
609.068	20308.88
609.834	21435.88
610.599	22533.88
611.365	23522.88
612.131	24590.88
612.896	25574.88
613.662	26308.88
614.427	27036.88
615.193	27657.88
615.958	28195.88
616.723	28827.88
617.488	29272.88
618.253	29673.88
619.018	30092.88
619.783	30282.88
620.548	30544.88
621.312	30791.88
622.077	30905.88
622.842	31000.88
623.606	31100.88
624.37	31182.88
625.135	31195.88
625.899	31147.88
626.663	31115.88
627.427	30842.88
628.191	30689.88
628.955	30626.88
629.719	30490.88
630.483	30398.88
631.246	30153.88
632.01	29880.88
632.773	29647.88
633.537	29356.88
634.3	29111.88
635.063	28841.88
635.827	28518.88
636.59	28162.88
637.353	27927.88
638.116	27662.88
638.879	27353.88
639.641	27082.88
640.404	26878.88
641.167	26607.88
641.929	26294.88
642.692	26097.88
643.454	25837.88
644.216	25693.88
644.979	25505.88
645.741	25390.88
646.503	25261.88
647.265	25181.88
648.027	25013.88
648.789	24851.88
649.551	24722.88
650.312	24362.88
651.074	23854.88
651.835	23590.88
652.597	23283.88
653.358	23025.88
654.12	22836.88
654.881	22666.88
655.642	22552.88
656.403	22407.88
657.164	22355.88
657.925	22315.88
658.686	22279.88
659.447	22290.88
660.207	22374.88
660.968	22324.88
661.728	22409.88
662.489	22489.88
663.249	22611.88
664.01	22784.88
664.77	22844.88
665.53	22906.88
666.29	23028.88
667.05	23030.88
667.81	23170.88
668.57	23329.88
669.329	23319.88
670.089	23403.88
670.849	23422.88
671.608	23575.88
672.368	23524.88
673.127	23551.88
673.886	23539.88
674.646	23503.88
675.405	23366.88
676.164	23329.88
676.923	23238.88
677.682	23084.88
678.44	22989.88
679.199	22938.88
679.958	22916.88
680.717	23019.88
681.475	23295.88
682.233	23879.88
682.992	23929.88
683.75	23594.88
684.508	23016.88
685.266	22431.88
686.024	21983.88
686.782	21652.88
687.54	21516.88
688.298	21286.88
689.056	20946.88
689.814	20590.88
690.571	20159.88
691.329	19815.88
692.086	19440.88
692.843	19071.88
693.601	18675.88
694.358	18297.88
695.115	17978.88
695.872	17682.88
696.629	17394.88
697.386	17126.88
698.143	16891.88
698.9	16661.88
699.656	16469.88
700.413	16384.88
701.169	16176.88
701.926	16065.88
702.682	15960.88
703.438	15888.88
704.195	15810.88
704.951	15654.88
705.707	15529.88
706.463	15501.88
707.219	15440.88
707.974	15433.88
708.73	15403.88
709.486	15340.88
710.241	15275.88
710.997	15224.88
711.752	15154.88
712.508	14937.88
713.263	14620.88
714.018	14251.88
714.773	13835.88
715.528	13436.88
716.283	12979.88
717.038	12592.88
717.793	12219.88
718.548	11685.88
719.303	11252.88
720.057	10765.88
720.812	10359.88
721.566	10041.88
722.321	9685.88
723.075	9409.88
723.829	9177.88
724.583	8980.88
725.337	8828.88
726.091	8676.88
726.845	8536.88
727.599	8485.88
728.353	8401.88
729.106	8298.88
729.86	8166.88
730.614	8233.88
731.367	8141.88
732.12	8378.88
732.874	8297.88
733.627	8041.88
734.38	7639.88
735.133	7250.88
735.886	6932.88
736.639	6743.88
737.392	6586.88
738.145	6463.88
738.897	6379.88
739.65	6313.88
740.403	6236.88
741.155	6108.88
741.907	5810.88
742.66	5439.88
743.412	4869.88
744.164	4268.88
744.916	3521.88
745.668	2683.88
746.42	1839.88
747.172	1093.88
747.924	597.88
748.676	318.88
749.427	197.88
750.179	157.88
750.93	131.88
751.682	120.88
752.433	117.88
753.184	98.88
753.935	101.88
754.687	92.88
755.438	88.88
756.189	82.88
756.939	90.88
757.69	76.88
758.441	81.88
759.192	82.88
759.942	78.88
760.693	77.88
761.443	84.88
762.194	83.88
762.944	64.88
763.694	89.88
764.444	72.88
765.194	77.88
765.944	63.88
766.694	59.88
767.444	63.88
768.194	72.88
768.943	48.88
769.693	65.88
770.443	62.88
771.192	55.88
771.941	48.88
772.691	54.88
773.44	54.88
774.189	51.88
774.938	45.88
775.687	46.88
776.436	38.88
777.185	52.88
777.934	37.88
778.683	43.88
779.431	44.88
780.18	48.88
780.928	29.88
781.677	49.88
782.425	57.88
783.173	56.88
783.922	46.88
784.67	37.88
785.418	46.88
786.166	49.88
786.914	46.88
787.661	42.88
788.409	41.88
789.157	61.88
789.904	29.88
790.652	49.88
791.399	37.88
792.147	42.88
792.894	47.88
793.641	35.88
794.388	228.88
795.136	38.88
795.883	35.88
796.629	33.88
797.376	25.88
798.123	41.88
798.87	41.88
799.616	20.88
800.363	30.88
801.109	28.88
801.856	46.88
802.602	15.88
803.349	29.88
804.095	35.88
804.841	33.88
805.587	36.88
806.333	35.88
807.079	41.88
807.825	31.88
808.57	20.88
809.316	28.88
810.062	29.88
810.807	25.88
811.553	24.88
812.298	39.88
813.043	27.88
813.788	32.88
814.534	16.88
815.279	14.88
816.024	23.88
816.769	32.88
817.514	17.88
818.258	33.88
819.003	38.88
819.748	295.88
820.492	31.88
821.237	94.88
821.981	21.88
822.726	33.88
823.47	24.88
824.214	38.88
824.958	39.88
825.702	36.88
826.446	31.88
827.19	21.88
827.934	27.88
828.678	25.88
829.421	18.88
830.165	17.88
830.909	26.88
831.652	20.88
832.395	20.88
833.139	24.88
833.882	30.88
834.625	22.88
835.368	24.88
836.111	16.88
836.854	21.88
837.597	23.88
838.34	21.88
839.083	25.88
839.825	19.88
840.568	17.88
841.311	16.88
842.053	21.88
842.795	18.88
843.538	24.88
844.28	28.88
845.022	7.88
845.764	21.88
846.506	11.88
847.248	15.88
847.99	15.88
848.732	35.88
849.474	8.88
850.215	12.88
850.957	27.88
851.698	16.88
852.44	24.88
853.181	28.88
853.922	24.88
854.664	18.88
855.405	34.88
856.146	24.88
856.887	24.88
857.628	26.88
858.369	16.88
859.109	32.88
859.85	16.88
860.591	15.88
861.331	36.88
862.072	30.88
862.812	15.88
863.553	23.88
864.293	33.88
865.033	13.88
865.773	17.88
866.513	14.88
867.253	24.88
867.993	25.88
868.733	24.88
869.473	19.88
870.213	25.88
870.952	23.88
871.692	23.88
872.431	15.88
873.171	30.88
873.91	31.88
874.649	14.88
875.388	44.88
876.128	18.88
876.867	10.88
877.606	19.88
878.345	21.88
879.083	14.88
879.822	20.88
880.561	37.88
881.299	28.88
882.038	26.88
882.777	15.88
883.515	26.88
884.253	68.88
884.992	18.88
885.73	15.88
886.468	24.88
887.206	29.88
887.944	37.88
888.682	17.88
889.42	23.88
890.157	17.88
890.895	21.88
891.633	22.88
892.37	21.88
893.108	26.88
893.845	34.88
894.583	15.88
895.32	30.88
896.057	22.88
896.794	26.88
897.531	19.88
898.268	16.88
899.005	25.88
899.742	25.88
900.479	22.88
901.215	20.88
901.952	21.88
902.689	32.88
903.425	19.88
904.162	2.88
904.898	14.88
905.634	6.88
906.37	21.88
907.106	18.88
907.843	20.88
908.579	21.88
909.314	18.88
910.05	24.88
910.786	22.88
911.522	21.88
912.257	11.88
912.993	18.88
913.728	5.88
914.464	26.88
915.199	15.88
915.935	34.88
916.67	23.88
917.405	18.88
918.14	21.88
918.875	34.88
919.61	39.88
920.345	27.88
921.08	35.88
921.814	29.88
922.549	16.88
923.284	-14.12
924.018	18.88
924.752	20.88
925.487	23.88
926.221	23.88
926.955	18.88
927.69	10.88
928.424	25.88
929.158	25.88
929.892	9.88
930.625	19.88
931.359	13.88
932.093	18.88
932.827	33.88
933.56	23.88
934.294	22.88
935.027	20.88
935.761	32.88
936.494	26.88
937.227	24.88
937.96	20.88
938.693	18.88
939.426	22.88
940.159	11.88
940.892	15.88
941.625	20.88
942.358	23.88
943.091	27.88
943.823	18.88
944.556	26.88
945.288	27.88
946.021	23.88
946.753	27.88
947.485	25.88
948.217	25.88
948.95	15.88
949.682	4.88
950.414	30.88
951.146	28.88
951.877	18.88
952.609	29.88
953.341	19.88
954.073	25.88
954.804	23.88
955.536	23.88
956.267	17.88
956.998	9.88
957.73	24.88
958.461	18.88
959.192	27.88
959.923	25.88
960.654	39.88
961.385	22.88
962.116	13.88
962.847	29.88
963.578	16.88
964.308	24.88
965.039	19.88
965.769	18.88
966.5	25.88
967.23	16.88
967.961	17.88
968.691	30.88
969.421	24.88
970.151	24.88
970.881	31.88
971.611	21.88
972.341	25.88
973.071	9.88
973.801	30.88
974.53	28.88
975.26	22.88
975.99	17.88
976.719	18.88
977.448	33.88
978.178	28.88
978.907	31.88
979.636	20.88
980.365	21.88
981.095	10.88
981.824	27.88
982.553	14.88
983.281	17.88
984.01	0.88
984.739	2.88
985.468	-2.12
986.196	-5.12
986.925	30.88
987.653	43.88
988.382	21.88
989.11	22.88
989.838	35.88
990.566	26.88
991.295	6.88
992.023	21.88
992.751	16.88
993.478	11.88
994.206	29.88
994.934	13.88
995.662	0.88
996.389	-0.12
997.117	3.88
997.845	-1.12
