Data from SampleKW32_Subt2_006.txt Node
Date: Fri Aug 23 09:22:27 EDT 2019
User: wcc
Spectrometer: QEPB0759
Trigger mode: 0
Integration Time (sec): 1.000000E0
Scans to average: 1
Electric dark correction enabled: true
Nonlinearity correction enabled: true
Boxcar width: 0
XAxis mode: Wavelengths
Number of Pixels in Spectrum: 1044
>>>>>Begin Spectral Data<<<<<
197.938	-7.56
198.749	7.82
199.559	-1.41
200.369	-1.41
201.179	-4.48
201.988	-15.76
202.798	4.74
203.608	-15.76
204.417	-9.61
205.227	9.87
206.036	-5.51
206.846	2.69
207.655	-22.93
208.464	-4.48
209.273	1.67
210.082	-8.59
210.891	-0.38
211.7	-15.76
212.508	-15.76
213.317	-3.46
214.125	-4.49
214.934	-0.38
215.742	3.72
216.55	13.97
217.359	3.72
218.167	0.64
218.975	-11.66
219.782	-2.43
220.59	-12.69
221.398	-5.51
222.206	-9.61
223.013	-8.59
223.82	-7.56
224.628	-15.76
225.435	20.12
226.242	-6.53
227.049	-8.58
227.856	4.74
228.663	-6.53
229.47	-5.51
230.277	-8.59
231.083	-2.43
231.89	1.67
232.696	-10.63
233.502	4.74
234.309	-14.74
235.115	-12.68
235.921	-2.43
236.727	-7.56
237.533	-3.46
238.339	-26.01
239.144	-3.46
239.95	1.67
240.756	-5.51
241.561	-14.74
242.366	-22.94
243.172	-10.63
243.977	-2.43
244.782	-8.58
245.587	-1.41
246.392	-7.56
247.197	-5.51
248.001	8.84
248.806	7.82
249.611	-3.46
250.415	-2.43
251.219	-7.56
252.024	-8.58
252.828	-8.59
253.632	3.72
254.436	-0.38
255.24	-23.96
256.044	11.92
256.848	-10.64
257.651	-17.81
258.455	-20.89
259.258	-5.51
260.062	1304.06
260.865	-6.53
261.668	7.82
262.471	-9.61
263.274	-13.71
264.077	2.69
264.88	-21.91
265.683	4.74
266.486	1.67
267.288	5.77
268.091	5.77
268.893	-15.76
269.696	0.64
270.498	4.74
271.3	-8.58
272.102	-2.43
272.904	-13.71
273.706	3.72
274.508	12.94
275.309	-22.94
276.111	6.79
276.913	8.84
277.714	-4.49
278.515	-22.94
279.317	-2.43
280.118	-26.01
280.919	-14.74
281.72	-4.48
282.521	-20.88
283.322	-13.71
284.122	-12.68
284.923	-17.81
285.724	-8.59
286.524	-20.89
287.325	-15.76
288.125	-22.94
288.925	-13.71
289.725	-33.19
290.525	-28.06
291.325	-21.91
292.125	0.64
292.925	-20.88
293.724	-22.94
294.524	-19.86
295.324	6.79
296.123	-7.56
296.922	-13.71
297.722	9.86
298.521	-19.86
299.32	4.74
300.119	-17.81
300.918	-12.68
301.716	-3.46
302.515	-19.86
303.314	-13.71
304.112	-19.86
304.911	-24.98
305.709	-7.56
306.507	-14.73
307.306	-27.04
308.104	-0.38
308.902	-15.76
309.7	-20.89
310.498	-24.98
311.295	-13.71
312.093	-14.73
312.891	-24.98
313.688	21.14
314.485	0.64
315.283	2.69
316.08	-6.53
316.877	-26.01
317.674	-19.86
318.471	-11.66
319.268	2.69
320.065	-15.76
320.862	-7.56
321.658	13.97
322.455	18.07
323.251	-28.06
324.047	-8.59
324.844	-4.48
325.64	-4.49
326.436	-0.38
327.232	-30.11
328.028	-22.94
328.824	-7.56
329.62	-11.66
330.415	-19.86
331.211	-5.51
332.006	-9.61
332.802	-16.78
333.597	-12.69
334.392	-9.61
335.187	-6.53
335.982	4.74
336.777	12.94
337.572	-26.01
338.367	-13.71
339.162	-13.71
339.956	-1.41
340.751	-10.63
341.545	-14.73
342.34	-16.78
343.134	-16.79
343.928	-11.66
344.722	-1.41
345.516	-7.56
346.31	-20.89
347.104	-17.81
347.898	-8.59
348.691	-29.09
349.485	-8.59
350.278	-23.96
351.072	-14.73
351.865	1.65
352.658	0.64
353.452	-16.78
354.245	-11.66
355.038	-11.66
355.83	-13.71
356.623	-9.61
357.416	-10.64
358.209	0.64
359.001	-22.94
359.794	-22.94
360.586	-18.83
361.378	-11.66
362.17	-18.84
362.963	-13.71
363.755	2.69
364.546	-21.91
365.338	-10.63
366.13	0.64
366.922	-12.68
367.713	-22.94
368.505	1.67
369.296	13.97
370.088	-3.46
370.879	-16.79
371.67	-2.43
372.461	5.77
373.252	3.72
374.043	-0.38
374.834	10.89
375.625	9.87
376.415	26.26
377.206	16.02
377.996	21.14
378.787	54.96
379.577	51.9
380.367	92.9
381.157	103.13
381.947	145.16
382.737	163.6
383.527	175.89
384.317	227.1
385.107	273.26
385.896	291.64
386.686	328.54
387.475	394.08
388.265	453.54
389.054	498.39
389.843	596.89
390.632	643.94
391.421	730.94
392.21	809.73
392.999	897.85
393.788	967.35
394.576	1067.54
395.365	1157.52
396.154	1269.08
396.942	1356.02
397.73	1428.48
398.519	1555.19
399.307	1665.49
400.095	1726.73
400.883	1823.53
401.671	1931.01
402.459	2038.15
403.246	2113.82
404.034	2257.65
404.822	2380.99
405.609	2488.81
406.396	2613.08
407.184	2677.93
407.971	2752.87
408.758	2838.47
409.545	2903.48
410.332	2959.58
411.119	3073.75
411.906	3143.47
412.693	3275.28
413.479	3409.54
414.266	3575.75
415.052	3748.2
415.839	3998.5
416.625	4225.13
417.411	4463.64
418.197	4706.59
418.983	4920.16
419.769	5063.75
420.555	5025.54
421.341	5037.82
422.127	4957.56
422.912	4885.71
423.698	4890.04
424.483	4886.7
425.269	4946.71
426.054	4992.79
426.839	5159.12
427.624	5305.65
428.409	5495.87
429.194	5741.9
429.979	5985.62
430.764	6270.79
431.549	6524.75
432.333	6820.79
433.118	7045.96
433.902	7271.51
434.687	7428.4
435.471	7678.09
436.255	7903.32
437.039	8151.12
437.823	8403.47
438.607	8596.23
439.391	8642.86
440.175	8755.89
440.958	8971.89
441.742	9119.6
442.526	9354
443.309	9542.71
444.092	9781.22
444.876	10039.49
445.659	10199.61
446.442	10389.15
447.225	10657.66
448.008	11135.93
448.791	12052.97
449.573	13233.4
450.356	13407.95
451.139	13045.73
451.921	13275.88
452.704	13243.63
453.486	13001.97
454.268	13181.96
455.05	13596.36
455.833	13954.77
456.615	14470.19
457.396	14862.55
458.178	15029.67
458.96	14995.73
459.742	14969.61
460.523	15067.64
461.305	15470.99
462.086	15823.18
462.868	16008.67
463.649	15722.78
464.43	15432.9
465.211	15395.15
465.992	15917.45
466.773	16995.69
467.554	17807.88
468.335	17615.02
469.115	16868.03
469.896	16034.77
470.676	15327.22
471.457	14967.87
472.237	15629.46
473.018	16305.15
473.798	15101.59
474.578	13461.74
475.358	12764.69
476.138	12281.91
476.918	11833.72
477.697	11529.1
478.477	11384.77
479.257	11265.59
480.036	11408.89
480.816	11462.46
481.595	11217.89
482.374	10714.86
483.153	10202.52
483.932	9619.06
484.711	9045.81
485.49	8531.02
486.269	8129.68
487.048	7760.89
487.827	7554.02
488.605	7297.37
489.384	7092.62
490.162	6949.64
490.941	7053.93
491.719	7071.51
492.497	6797.43
493.275	6331.64
494.053	5890.18
494.831	5505.12
495.609	5165.35
496.387	4875.05
497.164	4587.13
497.942	4350.78
498.72	4101.17
499.497	3847.03
500.274	3590.41
501.052	3350.83
501.829	3112.43
502.606	2881.59
503.383	2621.5
504.16	2416.63
504.937	2149.31
505.714	1897.52
506.49	1707.24
507.267	1505.34
508.043	1307.83
508.82	1131.83
509.596	1002.27
510.373	819.01
511.149	696.24
511.925	584.59
512.701	519.05
513.477	418.63
514.253	344.93
515.029	281.43
515.804	214.83
516.58	193.29
517.356	165.65
518.131	135.91
518.906	140.04
519.682	94.94
520.457	78.54
521.232	93.91
522.007	60.09
522.782	67.27
523.557	64.2
524.332	33.44
525.107	49.84
525.881	42.67
526.656	44.72
527.43	29.34
528.205	16.02
528.979	22.17
529.753	36.52
530.527	26.26
531.302	25.24
532.076	1.67
532.849	33.44
533.623	11.92
534.397	24.22
535.171	33.44
535.944	22.16
536.718	-6.54
537.491	19.09
538.265	5.77
539.038	12.94
539.811	-0.38
540.584	-5.51
541.357	-12.68
542.13	-27.03
542.903	-18.83
543.676	-31.13
544.449	-26.01
545.221	-30.11
545.994	-14.74
546.766	-12.68
547.539	7.82
548.311	-34.21
549.083	16.02
549.855	4.74
550.627	-5.51
551.399	-3.46
552.171	-10.63
552.943	18.06
553.715	21.14
554.486	18.07
555.258	12.94
556.029	8.84
556.801	35.49
557.572	7.82
558.343	22.17
559.114	21.14
559.886	18.07
560.657	31.39
561.427	29.34
562.198	20.12
562.969	26.27
563.74	28.32
564.51	31.39
565.281	12.94
566.051	31.39
566.822	26.27
567.592	14.99
568.362	25.24
569.132	10.89
569.902	20.11
570.672	32.42
571.442	11.92
572.212	30.37
572.982	31.39
573.751	12.94
574.521	27.29
575.29	38.56
576.06	17.04
576.829	32.42
577.598	25.24
578.367	13.97
579.136	33.44
579.905	42.66
580.674	23.19
581.443	27.29
582.212	22.17
582.981	37.54
583.749	48.82
584.518	31.39
585.286	44.71
586.054	42.66
586.823	46.76
587.591	62.14
588.359	85.7
589.127	100.05
589.895	127.71
590.663	164.6
591.431	237.35
592.198	360.27
592.966	508.75
593.734	697.06
594.501	989.83
595.268	1404.97
596.036	1871.46
596.803	2503.44
597.57	3300.92
598.337	4213.88
599.104	5298.1
599.871	6557.52
600.638	7925.22
601.405	9444.31
602.171	11027.65
602.938	12730.09
603.704	14414.14
604.471	16157.81
605.237	17782.92
606.004	19557.23
606.77	21205.53
607.536	22841.42
608.302	24457.09
609.068	25978.87
609.834	27372.36
610.599	28702.27
611.365	30079.37
612.131	31299.76
612.896	32405.33
613.662	33343.7
614.427	34281.19
615.193	35036.34
615.958	35783.5
616.723	36347.84
617.488	36890.56
618.253	37380.84
619.018	37767.97
619.783	38088.55
620.548	38326.71
621.312	38632.32
622.077	38880.81
622.842	38997.27
623.606	39068.16
624.37	39193.76
625.135	39185.32
625.899	39107.83
626.663	38906.11
627.427	38772.32
628.191	38626.56
628.955	38481.63
629.719	38434.98
630.483	38256.94
631.246	38036.94
632.01	37660.23
632.773	37366.17
633.537	36985.77
634.3	36687.77
635.063	36307.39
635.827	35887.22
636.59	35525
637.353	35145.72
638.116	34823.88
638.879	34454.32
639.641	34068.47
640.404	33656.08
641.167	33341.66
641.929	32976.96
642.692	32658.25
643.454	32360.84
644.216	32035.99
644.979	31754.17
645.741	31542.45
646.503	31387.04
647.265	31174.26
648.027	30923.44
648.789	30753.83
649.551	30451.78
650.312	29985.27
651.074	29348.51
651.835	28873.16
652.597	28483.82
653.358	28153.53
654.12	27815.02
654.881	27626.22
655.642	27297.55
656.403	27122.44
657.164	27047.07
657.925	26916.05
658.686	26771.55
659.447	26755.39
660.207	26702.14
660.968	26739.76
661.728	26664.64
662.489	26779.01
663.249	26878.95
664.01	26961.92
664.77	27018.63
665.53	27071.54
666.29	27110.16
667.05	27133.24
667.81	27264.59
668.57	27285.21
669.329	27359.89
670.089	27459.99
670.849	27497.95
671.608	27553.78
672.368	27480.2
673.127	27413.65
673.886	27392.11
674.646	27284.24
675.405	27308.55
676.164	27138.17
676.923	27090.08
677.682	26859.08
678.44	26733.28
679.199	26635.2
679.958	26562.98
680.717	26681.77
681.475	27053.02
682.233	27676.02
682.992	27702.66
683.75	27105.22
684.508	26423.93
685.266	25822.46
686.024	25297.76
686.782	24868.07
687.54	24612.07
688.298	24300.69
689.056	23871.27
689.814	23434.2
690.571	22902.19
691.329	22402.67
692.086	21851.72
692.843	21419.17
693.601	21026.95
694.358	20506.29
695.115	20070.6
695.872	19721.93
696.629	19391.19
697.386	19072.58
698.143	18737.92
698.9	18538.17
699.656	18293.17
700.413	18130.95
701.169	17982.22
701.926	17856.31
702.682	17602.85
703.438	17461.96
704.195	17284.63
704.951	17175.42
705.707	17009.5
706.463	16963.81
707.219	16918.04
707.974	16914.99
708.73	16804.2
709.486	16773.34
710.241	16747.93
710.997	16661.65
711.752	16456.09
712.508	16254.9
713.263	15798.12
714.018	15489.55
714.773	15061.75
715.528	14637.38
716.283	14154.05
717.038	13691.59
717.793	13227.18
718.548	12679.29
719.303	12192.54
720.057	11630.67
720.812	11181.16
721.566	10785.32
722.321	10411.35
723.075	10156.65
723.829	9851
724.583	9632.1
725.337	9417.62
726.091	9222.28
726.845	9109.16
727.599	9007.93
728.353	8848.65
729.106	8688.58
729.86	8556.62
730.614	8578.58
731.367	8269.03
732.12	8665.74
732.874	8549.4
733.627	8179.74
734.38	7748.13
735.133	7348.91
735.886	7020.21
736.639	6749.26
737.392	6569.2
738.145	6467.89
738.897	6375.56
739.65	6295.39
740.403	6187.85
741.155	6000.52
741.907	5712.28
742.66	5247.63
743.412	4716.86
744.164	4078.54
744.916	3348.3
745.668	2497.17
746.42	1665.21
747.172	986.79
747.924	484.23
748.676	260.97
749.427	156.43
750.179	111.33
750.93	107.23
751.682	89.82
752.433	65.21
753.184	60.08
753.935	64.19
754.687	60.1
755.438	47.79
756.189	59.07
756.939	52.92
757.69	48.82
758.441	42.67
759.192	50.87
759.942	58.04
760.693	42.66
761.443	34.46
762.194	43.69
762.944	40.62
763.694	41.64
764.444	46.77
765.194	49.84
765.944	30.36
766.694	17.04
767.444	22.16
768.194	35.49
768.943	19.09
769.693	14.99
770.443	16.02
771.192	-9.61
771.941	34.47
772.691	5.77
773.44	7.82
774.189	25.24
774.938	2.69
775.687	14.99
776.436	-4.48
777.185	10.89
777.934	10.89
778.683	12.94
779.431	11.92
780.18	-5.51
780.928	8.84
781.677	5.77
782.425	11.92
783.173	0.64
783.922	-2.43
784.67	6.79
785.418	0.64
786.166	18.06
786.914	17.04
787.661	1.67
788.409	6.79
789.157	20.12
789.904	-4.48
790.652	17.04
791.399	9.87
792.147	9.87
792.894	11.92
793.641	6.79
794.388	353.49
795.136	16.02
795.883	13.97
796.629	-0.38
797.376	-10.64
798.123	7.82
798.87	12.94
799.616	-26.01
800.363	-0.38
801.109	-1.41
801.856	-9.61
802.602	-1.41
803.349	-1.41
804.095	9.86
804.841	-13.71
805.587	-4.48
806.333	-6.53
807.079	4.74
807.825	16.02
808.57	-6.53
809.316	-0.38
810.062	-31.14
810.807	-14.73
811.553	-5.51
812.298	-6.53
813.043	-8.58
813.788	3.72
814.534	0.64
815.279	-13.71
816.024	-11.66
816.769	-16.79
817.514	-14.73
818.258	-17.81
819.003	-18.83
819.748	-501.07
820.492	-17.81
821.237	-85.93
821.981	-2.43
822.726	-19.86
823.47	-14.73
824.214	-13.71
824.958	-30.11
825.702	-28.06
826.446	-19.86
827.19	7.82
827.934	-20.88
828.678	-15.76
829.421	2.69
830.165	-32.16
830.909	-12.68
831.652	-18.84
832.395	-27.03
833.139	-12.68
833.882	-24.98
834.625	-22.93
835.368	-22.94
836.111	-9.61
836.854	-33.19
837.597	-9.61
838.34	-10.63
839.083	-5.51
839.825	-34.21
840.568	0.64
841.311	-22.93
842.053	-18.83
842.795	-17.81
843.538	-21.91
844.28	-12.69
845.022	-15.76
845.764	-12.68
846.506	-8.59
847.248	-34.21
847.99	-20.88
848.732	-6.53
849.474	-16.79
850.215	-23.96
850.957	-38.32
851.698	-13.71
852.44	-15.76
853.181	5.77
853.922	-14.73
854.664	-5.51
855.405	-15.76
856.146	-18.84
856.887	-6.53
857.628	-23.96
858.369	-7.56
859.109	-23.96
859.85	-19.86
860.591	-0.38
861.331	-21.91
862.072	-20.89
862.812	-14.74
863.553	-11.66
864.293	-42.41
865.033	-16.79
865.773	-10.64
866.513	-11.66
867.253	-15.76
867.993	-19.86
868.733	-21.91
869.473	-33.19
870.213	-28.06
870.952	-29.09
871.692	-35.24
872.431	-6.54
873.171	-18.84
873.91	-3.46
874.649	-27.04
875.388	0.64
876.128	-9.61
876.867	-23.96
877.606	-31.14
878.345	-13.71
879.083	-14.74
879.822	-19.86
880.561	-29.09
881.299	-20.89
882.038	-7.56
882.777	-8.58
883.515	-22.93
884.253	5.7
884.992	-16.79
885.73	-1.41
886.468	-4.48
887.206	-19.86
887.944	-17.81
888.682	-16.78
889.42	-23.96
890.157	-23.96
890.895	-16.79
891.633	-24.96
892.37	-32.16
893.108	-35.24
893.845	-31.14
894.583	-23.96
895.32	0.64
896.057	-18.84
896.794	-16.79
897.531	-28.06
898.268	-34.21
899.005	-22.94
899.742	-13.71
900.479	-20.89
901.215	-20.89
901.952	-6.54
902.689	-29.09
903.425	-19.86
904.162	-9.61
904.898	-15.76
905.634	-13.71
906.37	-26.01
907.106	-5.51
907.843	-9.61
908.579	-10.64
909.314	-9.61
910.05	-29.09
910.786	-15.76
911.522	-17.81
912.257	-44.46
912.993	-0.38
913.728	-10.64
914.464	-31.14
915.199	-5.51
915.935	-28.07
916.67	-28.06
917.405	-22.93
918.14	-16.78
918.875	-6.53
919.61	-3.46
920.345	-18.83
921.08	-19.86
921.814	-11.66
922.549	-3.46
923.284	-23.96
924.018	-19.86
924.752	-33.18
925.487	-33.19
926.221	-16.78
926.955	-16.79
927.69	-16.79
928.424	-7.56
929.158	-21.91
929.892	-21.91
930.625	-10.63
931.359	-15.76
932.093	-5.51
932.827	-28.06
933.56	-19.86
934.294	-12.69
935.027	-4.48
935.761	-28.06
936.494	-22.94
937.227	-21.91
937.96	-26.01
938.693	-16.78
939.426	1.67
940.159	-35.23
940.892	-10.64
941.625	-15.76
942.358	-30.11
943.091	-17.81
943.823	-36.27
944.556	-16.79
945.288	0.64
946.021	-14.74
946.753	-6.54
947.485	-17.81
948.217	-1.41
948.95	-39.34
949.682	-17.81
950.414	-12.69
951.146	-20.89
951.877	-26.01
952.609	10.89
953.341	-8.58
954.073	-33.18
954.804	-20.89
955.536	-5.51
956.267	-23.96
956.998	2.69
957.73	-29.09
958.461	-20.89
959.192	0.64
959.923	-15.76
960.654	-11.66
961.385	-5.51
962.116	-21.91
962.847	-12.69
963.578	-5.51
964.308	-27.04
965.039	-18.84
965.769	-22.94
966.5	-16.79
967.23	-13.71
967.961	-16.79
968.691	-23.96
969.421	-8.59
970.151	-27.03
970.881	-30.11
971.611	-27.03
972.341	-5.51
973.071	-19.86
973.801	-6.53
974.53	-21.91
975.26	-31.14
975.99	-21.91
976.719	-29.08
977.448	-15.76
978.178	-12.69
978.907	-14.74
979.636	-12.69
980.365	-8.58
981.095	-10.63
981.824	-17.81
982.553	-12.69
983.281	-20.89
984.01	1.67
984.739	3.72
985.468	-16.8
986.196	5.77
986.925	-14.73
987.653	-23.96
988.382	1.67
989.11	-6.53
989.838	8.84
990.566	-0.38
991.295	-15.76
992.023	-24.98
992.751	-14.73
993.478	-8.59
994.206	-27.04
994.934	-26.01
995.662	-3.46
996.389	6.8
997.117	-9.62
997.845	11.93
