Data from SampleKW32_Bg_Subt2_010.txt Node
Date: Fri Aug 23 09:23:17 EDT 2019
User: wcc
Spectrometer: QEPB0759
Trigger mode: 0
Integration Time (sec): 1.000000E0
Scans to average: 1
Electric dark correction enabled: true
Nonlinearity correction enabled: true
Boxcar width: 0
XAxis mode: Wavelengths
Number of Pixels in Spectrum: 1044
>>>>>Begin Spectral Data<<<<<
197.938	-17.68
198.749	-31.01
199.559	-11.53
200.369	-17.68
201.179	-5.38
201.988	-28.96
202.798	-14.61
203.608	-32.03
204.417	-28.96
205.227	-3.33
206.036	-20.76
206.846	-32.03
207.655	-32.03
208.464	-22.81
209.273	-17.68
210.082	-11.53
210.891	-21.78
211.7	-18.71
212.508	-29.99
213.317	-19.73
214.125	-12.56
214.934	-9.48
215.742	-17.68
216.55	-18.71
217.359	-10.51
218.167	-20.76
218.975	-32.03
219.782	-7.43
220.59	-11.53
221.398	-17.68
222.206	-11.53
223.013	-18.71
223.82	-20.76
224.628	-25.88
225.435	-20.76
226.242	-31.01
227.049	-21.78
227.856	-14.61
228.663	-26.91
229.47	-14.61
230.277	-26.91
231.083	-12.56
231.89	-34.09
232.696	-35.11
233.502	-21.78
234.309	-25.88
235.115	-35.11
235.921	-20.76
236.727	-16.66
237.533	-21.78
238.339	-44.33
239.144	-28.96
239.95	-13.58
240.756	-19.73
241.561	-27.93
242.366	-26.91
243.172	-25.88
243.977	-18.71
244.782	-32.03
245.587	-12.56
246.392	-20.76
247.197	-18.71
248.001	-18.71
248.806	-18.71
249.611	-28.96
250.415	-14.61
251.219	-26.91
252.024	-13.58
252.828	-24.86
253.632	-24.86
254.436	-10.51
255.24	-18.71
256.044	-7.43
256.848	-12.56
257.651	-31.01
258.455	-37.16
259.258	-33.06
260.062	-1482.66
260.865	-22.81
261.668	-15.63
262.471	-11.53
263.274	-39.21
264.077	-21.79
264.88	-37.16
265.683	-20.76
266.486	-16.66
267.288	-9.48
268.091	7.95
268.893	-51.51
269.696	-21.78
270.498	-24.86
271.3	-41.26
272.102	-27.93
272.904	-21.78
273.706	-8.46
274.508	-6.41
275.309	-43.31
276.111	-10.51
276.913	-10.51
277.714	-7.43
278.515	-26.91
279.317	-12.56
280.118	-6.41
280.919	-20.76
281.72	-18.71
282.521	-42.28
283.322	-19.73
284.122	-20.76
284.923	-34.08
285.724	-17.68
286.524	-28.96
287.325	-27.93
288.125	-24.86
288.925	-21.78
289.725	-37.16
290.525	-9.48
291.325	-34.08
292.125	-18.71
292.925	-20.76
293.724	-15.63
294.524	-31.01
295.324	-12.56
296.123	-32.03
296.922	-15.63
297.722	-19.73
298.521	-20.76
299.32	-6.41
300.119	-39.21
300.918	-27.93
301.716	-24.85
302.515	-29.98
303.314	-23.83
304.112	-23.83
304.911	-28.95
305.709	-31.01
306.507	-17.68
307.306	-46.38
308.104	-24.86
308.902	-15.63
309.7	-28.96
310.498	-34.08
311.295	-22.81
312.093	-40.23
312.891	-26.9
313.688	-21.78
314.485	-26.91
315.283	-3.33
316.08	-21.78
316.877	-26.91
317.674	-29.98
318.471	-37.16
319.268	-18.71
320.065	-25.88
320.862	-40.23
321.658	-8.46
322.455	2.82
323.251	-33.06
324.047	-26.91
324.844	-25.88
325.64	-21.79
326.436	-29.98
327.232	-31.01
328.028	-20.76
328.824	-6.41
329.62	-19.73
330.415	-14.6
331.211	-10.51
332.006	-29.98
332.802	-40.23
333.597	-20.76
334.392	-24.86
335.187	-18.71
335.982	-3.33
336.777	-13.58
337.572	-38.19
338.367	-32.03
339.162	-21.78
339.956	-14.61
340.751	-15.63
341.545	-31.01
342.34	-26.91
343.134	-20.76
343.928	-12.56
344.722	-28.96
345.516	-18.71
346.31	-37.16
347.104	-17.68
347.898	-7.43
348.691	-19.73
349.485	-14.61
350.278	-25.88
351.072	-22.8
351.865	-504.14
352.658	-6.41
353.452	-35.11
354.245	-22.81
355.038	-26.91
355.83	-11.53
356.623	-32.04
357.416	-27.93
358.209	-17.68
359.001	-33.06
359.794	-22.81
360.586	-35.11
361.378	-22.81
362.17	-27.93
362.963	-20.76
363.755	-25.88
364.546	-33.06
365.338	-31.01
366.13	-22.81
366.922	-23.83
367.713	-24.86
368.505	-20.76
369.296	-14.61
370.088	-16.66
370.879	-35.11
371.67	-39.21
372.461	-29.99
373.252	-28.96
374.043	-17.68
374.834	-33.06
375.625	-17.68
376.415	-24.86
377.206	-31.01
377.996	-16.66
378.787	-25.88
379.577	-33.06
380.367	-16.66
381.157	-20.76
381.947	-4.36
382.737	-15.63
383.527	-13.58
384.317	-20.76
385.107	-14.61
385.896	-26.91
386.686	-32.03
387.475	-34.08
388.265	-10.51
389.054	-39.2
389.843	-23.83
390.632	-18.71
391.421	-18.71
392.21	-17.68
392.999	-12.56
393.788	-14.61
394.576	-20.76
395.365	-43.31
396.154	-12.56
396.942	-24.86
397.73	-31.01
398.519	-13.58
399.307	-28.96
400.095	-39.21
400.883	-16.65
401.671	-19.73
402.459	-20.76
403.246	-27.93
404.034	-19.73
404.822	-25.88
405.609	-23.83
406.396	-13.58
407.184	-23.84
407.971	-13.58
408.758	-14.61
409.545	-8.46
410.332	-29.98
411.119	-15.63
411.906	-16.66
412.693	-25.88
413.479	-26.91
414.266	-29.98
415.052	-11.53
415.839	-14.61
416.625	-25.88
417.411	-10.51
418.197	-24.86
418.983	-33.05
419.769	-12.56
420.555	-34.08
421.341	-13.58
422.127	-20.76
422.912	-31.01
423.698	-15.63
424.483	-27.93
425.269	-28.96
426.054	-25.89
426.839	-24.86
427.624	-21.78
428.409	-19.73
429.194	-14.61
429.979	-8.46
430.764	-21.78
431.549	-19.73
432.333	-28.96
433.118	-12.56
433.902	-43.31
434.687	-57.66
435.471	-57.66
436.255	-24.86
437.039	-20.76
437.823	-28.96
438.607	-18.71
439.391	-52.53
440.175	-20.76
440.958	-18.71
441.742	-37.16
442.526	-23.84
443.309	-36.13
444.092	-25.88
444.876	-14.61
445.659	-25.88
446.442	-42.28
447.225	-34.08
448.008	-32.03
448.791	-18.71
449.573	0.77
450.356	-18.71
451.139	-33.06
451.921	-37.16
452.704	-18.71
453.486	-38.18
454.268	-39.21
455.05	-11.53
455.833	-27.93
456.615	-8.46
457.396	-20.76
458.178	-38.18
458.96	-34.09
459.742	-2.31
460.523	-34.08
461.305	-20.76
462.086	-23.83
462.868	-34.08
463.649	-4.36
464.43	-28.96
465.211	-19.73
465.992	-8.46
466.773	-24.85
467.554	-5.38
468.335	-6.41
469.115	-21.78
469.896	-3.33
470.676	-21.79
471.457	-22.81
472.237	-25.88
473.018	-12.56
473.798	-16.66
474.578	-17.68
475.358	-17.68
476.138	-21.79
476.918	-19.73
477.697	-20.76
478.477	-17.68
479.257	-20.76
480.036	-27.93
480.816	-34.09
481.595	-26.91
482.374	-47.41
483.153	-18.71
483.932	-39.21
484.711	-44.33
485.49	-59.71
486.269	-44.34
487.048	-72.02
487.827	-66.88
488.605	-48.44
489.384	-51.51
490.162	-25.88
490.941	-47.4
491.719	-21.78
492.497	-41.26
493.275	-42.29
494.053	-34.08
494.831	-23.83
495.609	-32.03
496.387	-31.01
497.164	-61.76
497.942	-35.11
498.72	-17.68
499.497	-32.03
500.274	-8.46
501.052	-27.93
501.829	-28.96
502.606	-26.91
503.383	-38.18
504.16	-15.63
504.937	-34.08
505.714	-23.84
506.49	-11.53
507.267	-31.01
508.043	-26.91
508.82	-34.08
509.596	-11.53
510.373	-35.11
511.149	-41.26
511.925	-37.16
512.701	-6.41
513.477	-35.1
514.253	-29.98
515.029	-35.11
515.804	-38.18
516.58	-33.05
517.356	-18.71
518.131	-23.83
518.906	-14.61
519.682	-25.88
520.457	-25.88
521.232	-12.56
522.007	-20.76
522.782	-9.48
523.557	-19.74
524.332	-37.16
525.107	-28.96
525.881	-26.91
526.656	-12.56
527.43	-29.99
528.205	-34.08
528.979	-29.99
529.753	-27.94
530.527	-25.88
531.302	-31.01
532.076	-45.36
532.849	-29.99
533.623	-43.31
534.397	-15.63
535.171	-35.11
535.944	-46.38
536.718	-62.79
537.491	-40.23
538.265	-43.32
539.038	-48.43
539.811	-52.53
540.584	-65.86
541.357	-67.91
542.13	-85.32
542.903	-64.82
543.676	-72.01
544.449	-77.13
545.221	-70.98
545.994	-58.69
546.766	-45.36
547.539	-54.59
548.311	-58.68
549.083	-46.38
549.855	-55.62
550.627	-40.23
551.399	-55.61
552.171	-52.53
552.943	-38.18
553.715	-25.89
554.486	-32.03
555.258	-25.89
556.029	-21.78
556.801	-6.41
557.572	-23.84
558.343	-25.88
559.114	-42.28
559.886	-31.01
560.657	-29.98
561.427	-17.68
562.198	-27.94
562.969	-25.88
563.74	-26.91
564.51	-29.99
565.281	-22.8
566.051	-18.71
566.822	-33.06
567.592	-16.66
568.362	-21.78
569.132	-35.11
569.902	-27.93
570.672	-18.71
571.442	-22.81
572.212	-38.18
572.982	-12.56
573.751	-35.11
574.521	-24.86
575.29	-13.58
576.06	-43.31
576.829	-32.03
577.598	-29.98
578.367	-45.36
579.136	-28.96
579.905	-29.98
580.674	-34.08
581.443	-49.46
582.212	-52.54
582.981	-42.28
583.749	-38.19
584.518	-31.01
585.286	-39.2
586.054	-55.6
586.823	-50.48
587.591	-45.36
588.359	-44.33
589.127	-39.21
589.895	-40.23
590.663	-50.48
591.431	-53.56
592.198	-32.03
592.966	-19.73
593.734	-38.18
594.501	-36.13
595.268	-4.36
596.036	-38.18
596.803	-38.19
597.57	-24.86
598.337	-28.96
599.104	-43.31
599.871	-34.08
600.638	-25.88
601.405	-27.93
602.171	-22.81
602.938	-32.03
603.704	-13.58
604.471	-37.16
605.237	-26.9
606.004	-36.13
606.77	-35.1
607.536	-33.05
608.302	-39.2
609.068	-50.48
609.834	-59.71
610.599	-114.02
611.365	-73.03
612.131	-65.86
612.896	-38.18
613.662	-57.65
614.427	-28.95
615.193	-41.26
615.958	-20.76
616.723	-33.06
617.488	-3.33
618.253	-13.58
619.018	-38.18
619.783	-31.01
620.548	-19.73
621.312	-25.88
622.077	-17.68
622.842	-20.76
623.606	-29.98
624.37	-20.76
625.135	-13.58
625.899	-12.56
626.663	-28.96
627.427	-16.66
628.191	-4.36
628.955	-41.25
629.719	-20.76
630.483	-36.13
631.246	-18.71
632.01	-22.81
632.773	-20.75
633.537	-4.36
634.3	-4.36
635.063	0.77
635.827	2.82
636.59	-9.48
637.353	-14.61
638.116	3.84
638.879	-15.63
639.641	-3.33
640.404	-13.58
641.167	-4.36
641.929	-13.58
642.692	5.89
643.454	-13.58
644.216	-8.46
644.979	-11.53
645.741	-20.76
646.503	-9.48
647.265	-1.28
648.027	-11.53
648.789	-7.43
649.551	-10.51
650.312	-12.56
651.074	-13.58
651.835	-10.51
652.597	-12.56
653.358	-12.56
654.12	-0.26
654.881	9.99
655.642	-17.68
656.403	-5.38
657.164	-12.56
657.925	-11.53
658.686	-9.48
659.447	-10.51
660.207	2.82
660.968	1.79
661.728	-10.51
662.489	-18.71
663.249	-12.56
664.01	1.79
664.77	-1.28
665.53	32.54
666.29	-10.51
667.05	1.79
667.81	-8.46
668.57	-0.26
669.329	-1.28
670.089	-12.56
670.849	1.79
671.608	0.77
672.368	4.87
673.127	-0.26
673.886	17.17
674.646	4.87
675.405	8.97
676.164	6.92
676.923	3.84
677.682	-6.41
678.44	4.87
679.199	8.97
679.958	-35.1
680.717	-0.26
681.475	9.99
682.233	6.92
682.992	6.92
683.75	-10.51
684.508	-15.63
685.266	0.77
686.024	-14.61
686.782	-3.33
687.54	-5.38
688.298	-8.46
689.056	2.82
689.814	5.89
690.571	-5.38
691.329	19.22
692.086	-4.36
692.843	6.92
693.601	8.97
694.358	-3.33
695.115	2.82
695.872	2.82
696.629	-15.63
697.386	4.87
698.143	8.97
698.9	-5.38
699.656	0.77
700.413	-14.61
701.169	-1.28
701.926	-6.41
702.682	-0.26
703.438	-3.33
704.195	16.14
704.951	6.92
705.707	-26.91
706.463	-12.56
707.219	-3.33
707.974	-25.88
708.73	-43.31
709.486	-13.58
710.241	-18.71
710.997	-12.56
711.752	-19.73
712.508	-11.53
713.263	-19.73
714.018	22.3
714.773	-8.46
715.528	15.12
716.283	-11.53
717.038	-0.26
717.793	-12.56
718.548	-19.73
719.303	-1.28
720.057	-9.48
720.812	-17.68
721.566	-16.66
722.321	-26.91
723.075	-16.66
723.829	-27.93
724.583	-5.38
725.337	-17.68
726.091	-8.46
726.845	-8.46
727.599	-18.71
728.353	-9.48
729.106	-18.71
729.86	-20.76
730.614	-40.24
731.367	-40.91
732.12	-20.76
732.874	-13.58
733.627	-12.56
734.38	-12.56
735.133	-5.38
735.886	-9.48
736.639	-22.81
737.392	-29.98
738.145	-4.36
738.897	-13.58
739.65	-15.63
740.403	-17.68
741.155	-14.61
741.907	-37.16
742.66	-22.8
743.412	-13.58
744.164	-17.68
744.916	-12.56
745.668	-23.83
746.42	-28.95
747.172	-9.48
747.924	-10.51
748.676	-18.71
749.427	-2.31
750.179	-34.08
750.93	-4.36
751.682	-21.79
752.433	-22.81
753.184	-41.25
753.935	-9.48
754.687	-16.66
755.438	-25.88
756.189	-25.88
756.939	-15.63
757.69	-13.58
758.441	-17.68
759.192	-24.86
759.942	-5.38
760.693	-36.13
761.443	-19.73
762.194	-2.31
762.944	-25.89
763.694	-27.93
764.444	-14.61
765.194	-14.61
765.944	-31.01
766.694	-20.76
767.444	-24.86
768.194	-20.76
768.943	-24.86
769.693	-28.96
770.443	-29.98
771.192	-51.51
771.941	-9.48
772.691	-41.26
773.44	-29.98
774.189	-25.88
774.938	-25.88
775.687	-25.88
776.436	-36.13
777.185	-28.96
777.934	-36.14
778.683	-22.81
779.431	-16.66
780.18	-17.68
780.928	-5.38
781.677	-29.98
782.425	-21.78
783.173	-31.01
783.922	-26.91
784.67	-11.53
785.418	-44.33
786.166	-15.63
786.914	-10.51
787.661	-21.78
788.409	-38.18
789.157	-28.96
789.904	-21.78
790.652	-7.43
791.399	-18.71
792.147	-13.58
792.894	1.79
793.641	-15.63
794.388	104.51
795.136	-18.71
795.883	2.82
796.629	-17.68
797.376	-32.04
798.123	-11.53
798.87	-21.79
799.616	-29.98
800.363	-23.83
801.109	-20.75
801.856	-20.76
802.602	-14.61
803.349	-8.46
804.095	-25.88
804.841	-35.11
805.587	-22.81
806.333	-24.86
807.079	-23.83
807.825	-3.33
808.57	-37.16
809.316	-24.85
810.062	-33.06
810.807	-27.93
811.553	-19.73
812.298	-14.61
813.043	-13.58
813.788	-7.43
814.534	-7.43
815.279	-26.9
816.024	-21.78
816.769	-13.58
817.514	-19.73
818.258	-29.98
819.003	-14.6
819.748	-531.06
820.492	-29.98
821.237	-54.23
821.981	-14.61
822.726	-23.83
823.47	-34.08
824.214	-28.95
824.958	-33.06
825.702	-36.13
826.446	-37.16
827.19	-10.51
827.934	-29.98
828.678	-17.68
829.421	-21.78
830.165	-25.88
830.909	-23.83
831.652	-28.96
832.395	-25.88
833.139	-17.68
833.882	-34.07
834.625	-20.76
835.368	-20.76
836.111	-16.66
836.854	-50.48
837.597	-18.71
838.34	-27.93
839.083	-5.38
839.825	-21.78
840.568	-3.33
841.311	-22.81
842.053	-28.96
842.795	-19.73
843.538	-14.61
844.28	-31.01
845.022	-26.91
845.764	-20.75
846.506	-19.73
847.248	-40.23
847.99	-32.03
848.732	-22.81
849.474	-33.06
850.215	-16.66
850.957	-32.04
851.698	-32.04
852.44	-24.86
853.181	-20.76
853.922	-31
854.664	-6.41
855.405	-36.13
856.146	-31.01
856.887	-14.61
857.628	-26.9
858.369	-21.79
859.109	-37.15
859.85	-15.63
860.591	8.97
861.331	-31.01
862.072	-17.69
862.812	-17.69
863.553	-9.48
864.293	-40.23
865.033	-24.86
865.773	-5.38
866.513	-13.58
867.253	-16.66
867.993	-16.66
868.733	-42.28
869.473	-27.93
870.213	-40.23
870.952	-21.79
871.692	-45.36
872.431	-17.68
873.171	-22.81
873.91	-5.38
874.649	-31.01
875.388	-14.61
876.128	-29.98
876.867	-35.11
877.606	-28.96
878.345	-25.88
879.083	-26.91
879.822	-37.16
880.561	-31.01
881.299	-32.04
882.038	-17.68
882.777	0.77
883.515	-36.13
884.253	-68.14
884.992	-32.03
885.73	-34.08
886.468	-12.56
887.206	-14.6
887.944	-27.93
888.682	-27.93
889.42	-25.88
890.157	-12.56
890.895	-16.66
891.633	-47.36
892.37	-27.93
893.108	-20.76
893.845	-15.63
894.583	-20.76
895.32	0.77
896.057	-27.94
896.794	-28.96
897.531	-27.93
898.268	-34.09
899.005	-34.09
899.742	-26.91
900.479	-37.16
901.215	-31.01
901.952	-21.78
902.689	-31.01
903.425	-9.48
904.162	-22.81
904.898	-14.61
905.634	-23.83
906.37	-22.81
907.106	-12.56
907.843	-20.76
908.579	-27.93
909.314	-21.79
910.05	-24.86
910.786	-14.61
911.522	-17.68
912.257	-40.23
912.993	-19.73
913.728	-8.46
914.464	-28.96
915.199	-12.56
915.935	-31.01
916.67	-20.76
917.405	-26.91
918.14	-40.23
918.875	-24.86
919.61	-12.56
920.345	-34.08
921.08	-42.28
921.814	-20.76
922.549	-16.66
923.284	-21.78
924.018	-21.78
924.752	-42.28
925.487	-35.11
926.221	-19.73
926.955	-10.51
927.69	-15.63
928.424	-29.98
929.158	-13.58
929.892	-27.94
930.625	-8.46
931.359	-14.61
932.093	-18.71
932.827	-14.61
933.56	-42.29
934.294	-10.51
935.027	-21.78
935.761	-36.13
936.494	-15.63
937.227	-21.78
937.96	-37.16
938.693	-20.76
939.426	-14.61
940.159	-40.23
940.892	-24.86
941.625	-18.71
942.358	-33.06
943.091	-24.86
943.823	-29.99
944.556	-29.99
945.288	-6.41
946.021	-18.71
946.753	-13.58
947.485	-22.81
948.217	-9.48
948.95	-32.03
949.682	-19.74
950.414	-23.84
951.146	-29.98
951.877	-15.63
952.609	12.05
953.341	-26.91
954.073	-20.76
954.804	-15.63
955.536	-21.78
956.267	-24.86
956.998	-3.33
957.73	-41.26
958.461	-27.94
959.192	-19.74
959.923	-25.88
960.654	-14.61
961.385	-0.26
962.116	-23.83
962.847	-13.58
963.578	-23.83
964.308	-24.86
965.039	-21.79
965.769	-26.91
966.5	-20.76
967.23	-24.86
967.961	-18.71
968.691	-21.78
969.421	-26.91
970.151	-41.26
970.881	-34.09
971.611	-45.36
972.341	-29.98
973.071	-27.93
973.801	-8.46
974.53	-15.63
975.26	-17.68
975.99	-21.78
976.719	-33.06
977.448	-17.68
978.178	-24.86
978.907	-21.78
979.636	-18.71
980.365	-24.86
981.095	-25.88
981.824	-27.93
982.553	-28.96
983.281	-25.88
984.01	-9.49
984.739	12.06
985.468	-4.36
986.196	4.87
986.925	-36.12
987.653	-31.01
988.382	-27.93
989.11	-23.83
989.838	-7.43
990.566	-9.48
991.295	-41.26
992.023	-18.71
992.751	-10.51
993.478	-14.61
994.206	-17.68
994.934	-27.93
995.662	-0.26
996.389	3.85
997.117	-7.44
997.845	0.77
