Data from Sample_Subt2_005.txt Node
Date: Tue Aug 27 12:41:01 EDT 2019
User: wcc
Spectrometer: QEPB0759
Trigger mode: 0
Integration Time (sec): 1.000000E0
Scans to average: 1
Electric dark correction enabled: true
Nonlinearity correction enabled: false
Boxcar width: 0
XAxis mode: Wavelengths
Number of Pixels in Spectrum: 1044
>>>>>Begin Spectral Data<<<<<
197.938	27.75
198.749	26.75
199.559	33.75
200.369	28.75
201.179	34.75
201.988	31.75
202.798	30.75
203.608	9.75
204.417	29.75
205.227	24.75
206.036	21.75
206.846	36.75
207.655	22.75
208.464	23.75
209.273	24.75
210.082	30.75
210.891	28.75
211.7	22.75
212.508	34.75
213.317	27.75
214.125	24.75
214.934	25.75
215.742	10.75
216.55	12.75
217.359	30.75
218.167	31.75
218.975	31.75
219.782	31.75
220.59	17.75
221.398	21.75
222.206	37.75
223.013	38.75
223.82	32.75
224.628	22.75
225.435	26.75
226.242	14.75
227.049	22.75
227.856	22.75
228.663	39.75
229.47	26.75
230.277	38.75
231.083	25.75
231.89	28.75
232.696	27.75
233.502	32.75
234.309	31.75
235.115	35.75
235.921	26.75
236.727	18.75
237.533	23.75
238.339	29.75
239.144	26.75
239.95	29.75
240.756	25.75
241.561	28.75
242.366	27.75
243.172	34.75
243.977	29.75
244.782	19.75
245.587	29.75
246.392	19.75
247.197	9.75
248.001	29.75
248.806	27.75
249.611	21.75
250.415	27.75
251.219	24.75
252.024	21.75
252.828	22.75
253.632	26.75
254.436	32.75
255.24	34.75
256.044	23.75
256.848	15.75
257.651	23.75
258.455	21.75
259.258	25.75
260.062	370.75
260.865	23.75
261.668	20.75
262.471	11.75
263.274	22.75
264.077	24.75
264.88	15.75
265.683	28.75
266.486	11.75
267.288	13.75
268.091	26.75
268.893	23.75
269.696	26.75
270.498	26.75
271.3	19.75
272.102	23.75
272.904	18.75
273.706	25.75
274.508	16.75
275.309	41.75
276.111	34.75
276.913	26.75
277.714	29.75
278.515	10.75
279.317	23.75
280.118	26.75
280.919	22.75
281.72	25.75
282.521	27.75
283.322	19.75
284.122	23.75
284.923	10.75
285.724	14.75
286.524	28.75
287.325	33.75
288.125	25.75
288.925	31.75
289.725	9.75
290.525	33.75
291.325	15.75
292.125	20.75
292.925	30.75
293.724	19.75
294.524	21.75
295.324	23.75
296.123	14.75
296.922	16.75
297.722	33.75
298.521	30.75
299.32	34.75
300.119	24.75
300.918	27.75
301.716	14.75
302.515	22.75
303.314	19.75
304.112	26.75
304.911	10.75
305.709	22.75
306.507	27.75
307.306	24.75
308.104	31.75
308.902	26.75
309.7	28.75
310.498	24.75
311.295	26.75
312.093	19.75
312.891	34.75
313.688	36.75
314.485	17.75
315.283	28.75
316.08	23.75
316.877	32.75
317.674	13.75
318.471	34.75
319.268	22.75
320.065	18.75
320.862	31.75
321.658	9.75
322.455	29.75
323.251	25.75
324.047	32.75
324.844	19.75
325.64	13.75
326.436	31.75
327.232	26.75
328.028	22.75
328.824	37.75
329.62	31.75
330.415	21.75
331.211	24.75
332.006	28.75
332.802	32.75
333.597	21.75
334.392	22.75
335.187	22.75
335.982	21.75
336.777	27.75
337.572	30.75
338.367	19.75
339.162	25.75
339.956	17.75
340.751	17.75
341.545	30.75
342.34	19.75
343.134	25.75
343.928	28.75
344.722	23.75
345.516	22.75
346.31	21.75
347.104	30.75
347.898	38.75
348.691	5.75
349.485	19.75
350.278	27.75
351.072	36.75
351.865	102.75
352.658	29.75
353.452	11.75
354.245	24.75
355.038	17.75
355.83	25.75
356.623	33.75
357.416	27.75
358.209	22.75
359.001	29.75
359.794	38.75
360.586	41.75
361.378	29.75
362.17	14.75
362.963	20.75
363.755	16.75
364.546	21.75
365.338	30.75
366.13	32.75
366.922	23.75
367.713	25.75
368.505	33.75
369.296	17.75
370.088	40.75
370.879	31.75
371.67	17.75
372.461	28.75
373.252	34.75
374.043	29.75
374.834	27.75
375.625	61.75
376.415	33.75
377.206	50.75
377.996	68.75
378.787	83.75
379.577	66.75
380.367	96.75
381.157	109.75
381.947	135.75
382.737	145.75
383.527	186.75
384.317	219.75
385.107	235.75
385.896	261.75
386.686	315.75
387.475	360.75
388.265	428.75
389.054	464.75
389.843	499.75
390.632	563.75
391.421	631.75
392.21	687.75
392.999	754.75
393.788	838.75
394.576	911.75
395.365	992.75
396.154	1069.75
396.942	1147.75
397.73	1236.75
398.519	1292.75
399.307	1358.75
400.095	1461.75
400.883	1508.75
401.671	1588.75
402.459	1672.75
403.246	1757.75
404.034	1868.75
404.822	1971.75
405.609	2013.75
406.396	2094.75
407.184	2143.75
407.971	2214.75
408.758	2244.75
409.545	2310.75
410.332	2406.75
411.119	2466.75
411.906	2551.75
412.693	2653.75
413.479	2774.75
414.266	2939.75
415.052	3100.75
415.839	3281.75
416.625	3438.75
417.411	3629.75
418.197	3775.75
418.983	3930.75
419.769	3943.75
420.555	3901.75
421.341	3843.75
422.127	3812.75
422.912	3786.75
423.698	3781.75
424.483	3793.75
425.269	3860.75
426.054	3944.75
426.839	4057.75
427.624	4193.75
428.409	4399.75
429.194	4561.75
429.979	4785.75
430.764	5021.75
431.549	5193.75
432.333	5355.75
433.118	5501.75
433.902	5650.75
434.687	5793.75
435.471	5931.75
436.255	6079.75
437.039	6242.75
437.823	6438.75
438.607	6543.75
439.391	6636.75
440.175	6734.75
440.958	6921.75
441.742	7058.75
442.526	7233.75
443.309	7416.75
444.092	7610.75
444.876	7810.75
445.659	7967.75
446.442	8131.75
447.225	8389.75
448.008	8812.75
448.791	9659.75
449.573	10395.75
450.356	10422.75
451.139	10318.75
451.921	10434.75
452.704	10382.75
453.486	10206.75
454.268	10451.75
455.05	10629.75
455.833	10982.75
456.615	11276.75
457.396	11560.75
458.178	11613.75
458.96	11552.75
459.742	11506.75
460.523	11578.75
461.305	11854.75
462.086	12140.75
462.868	12160.75
463.649	11902.75
464.43	11671.75
465.211	11716.75
465.992	12188.75
466.773	13014.75
467.554	13489.75
468.335	13267.75
469.115	12620.75
469.896	12064.75
470.676	11439.75
471.457	11361.75
472.237	11933.75
473.018	12013.75
473.798	11022.75
474.578	9944.75
475.358	9358.75
476.138	8986.75
476.918	8653.75
477.697	8422.75
478.477	8307.75
479.257	8284.75
480.036	8377.75
480.816	8323.75
481.595	8110.75
482.374	7722.75
483.153	7443.75
483.932	6977.75
484.711	6497.75
485.49	6211.75
486.269	5915.75
487.048	5707.75
487.827	5476.75
488.605	5304.75
489.384	5128.75
490.162	5064.75
490.941	5138.75
491.719	5127.75
492.497	4914.75
493.275	4546.75
494.053	4253.75
494.831	3966.75
495.609	3736.75
496.387	3519.75
497.164	3301.75
497.942	3121.75
498.72	2949.75
499.497	2773.75
500.274	2579.75
501.052	2403.75
501.829	2258.75
502.606	2081.75
503.383	1920.75
504.16	1731.75
504.937	1551.75
505.714	1407.75
506.49	1265.75
507.267	1086.75
508.043	960.75
508.82	843.75
509.596	724.75
510.373	630.75
511.149	555.75
511.925	459.75
512.701	392.75
513.477	336.75
514.253	280.75
515.029	245.75
515.804	203.75
516.58	190.75
517.356	158.75
518.131	136.75
518.906	117.75
519.682	101.75
520.457	88.75
521.232	73.75
522.007	92.75
522.782	81.75
523.557	53.75
524.332	63.75
525.107	69.75
525.881	62.75
526.656	55.75
527.43	65.75
528.205	62.75
528.979	46.75
529.753	61.75
530.527	66.75
531.302	52.75
532.076	52.75
532.849	46.75
533.623	51.75
534.397	51.75
535.171	48.75
535.944	59.75
536.718	57.75
537.491	56.75
538.265	50.75
539.038	46.75
539.811	48.75
540.584	34.75
541.357	45.75
542.13	65.75
542.903	40.75
543.676	49.75
544.449	38.75
545.221	34.75
545.994	47.75
546.766	25.75
547.539	34.75
548.311	53.75
549.083	44.75
549.855	37.75
550.627	46.75
551.399	48.75
552.171	41.75
552.943	49.75
553.715	55.75
554.486	58.75
555.258	38.75
556.029	51.75
556.801	52.75
557.572	62.75
558.343	42.75
559.114	52.75
559.886	55.75
560.657	41.75
561.427	38.75
562.198	44.75
562.969	49.75
563.74	52.75
564.51	53.75
565.281	56.75
566.051	51.75
566.822	42.75
567.592	43.75
568.362	57.75
569.132	44.75
569.902	46.75
570.672	50.75
571.442	62.75
572.212	51.75
572.982	52.75
573.751	57.75
574.521	63.75
575.29	58.75
576.06	43.75
576.829	54.75
577.598	53.75
578.367	42.75
579.136	55.75
579.905	51.75
580.674	64.75
581.443	70.75
582.212	58.75
582.981	68.75
583.749	52.75
584.518	71.75
585.286	55.75
586.054	74.75
586.823	81.75
587.591	80.75
588.359	99.75
589.127	110.75
589.895	141.75
590.663	175.75
591.431	213.75
592.198	306.75
592.966	413.75
593.734	568.75
594.501	768.75
595.268	1081.75
596.036	1477.75
596.803	1946.75
597.57	2550.75
598.337	3253.75
599.104	4088.75
599.871	5051.75
600.638	6096.75
601.405	7268.75
602.171	8512.75
602.938	9804.75
603.704	11159.75
604.471	12541.75
605.237	13837.75
606.004	15168.75
606.77	16507.75
607.536	17850.75
608.302	19063.75
609.068	20246.75
609.834	21418.75
610.599	22534.75
611.365	23619.75
612.131	24541.75
612.896	25527.75
613.662	26285.75
614.427	26955.75
615.193	27685.75
615.958	28289.75
616.723	28752.75
617.488	29232.75
618.253	29686.75
619.018	29921.75
619.783	30276.75
620.548	30622.75
621.312	30764.75
622.077	30949.75
622.842	30969.75
623.606	31026.75
624.37	31157.75
625.135	31170.75
625.899	31190.75
626.663	31085.75
627.427	30916.75
628.191	30737.75
628.955	30647.75
629.719	30562.75
630.483	30385.75
631.246	30118.75
632.01	29870.75
632.773	29684.75
633.537	29366.75
634.3	29080.75
635.063	28800.75
635.827	28544.75
636.59	28146.75
637.353	27939.75
638.116	27666.75
638.879	27308.75
639.641	27093.75
640.404	26850.75
641.167	26594.75
641.929	26297.75
642.692	26114.75
643.454	25873.75
644.216	25616.75
644.979	25517.75
645.741	25345.75
646.503	25280.75
647.265	25156.75
648.027	24952.75
648.789	24903.75
649.551	24701.75
650.312	24344.75
651.074	23840.75
651.835	23585.75
652.597	23221.75
653.358	23082.75
654.12	22823.75
654.881	22647.75
655.642	22557.75
656.403	22432.75
657.164	22357.75
657.925	22307.75
658.686	22280.75
659.447	22302.75
660.207	22323.75
660.968	22357.75
661.728	22414.75
662.489	22516.75
663.249	22647.75
664.01	22706.75
664.77	22802.75
665.53	22906.75
666.29	23008.75
667.05	23070.75
667.81	23195.75
668.57	23237.75
669.329	23283.75
670.089	23337.75
670.849	23353.75
671.608	23527.75
672.368	23507.75
673.127	23505.75
673.886	23511.75
674.646	23476.75
675.405	23398.75
676.164	23314.75
676.923	23226.75
677.682	23039.75
678.44	22981.75
679.199	22951.75
679.958	22806.75
680.717	22990.75
681.475	23329.75
682.233	23813.75
682.992	23998.75
683.75	23528.75
684.508	22950.75
685.266	22390.75
686.024	21979.75
686.782	21626.75
687.54	21467.75
688.298	21177.75
689.056	20899.75
689.814	20476.75
690.571	20195.75
691.329	19768.75
692.086	19397.75
692.843	19068.75
693.601	18657.75
694.358	18291.75
695.115	17888.75
695.872	17687.75
696.629	17344.75
697.386	17116.75
698.143	16829.75
698.9	16666.75
699.656	16473.75
700.413	16296.75
701.169	16122.75
701.926	16078.75
702.682	16064.75
703.438	15887.75
704.195	15722.75
704.951	15646.75
705.707	15518.75
706.463	15457.75
707.219	15378.75
707.974	15353.75
708.73	15338.75
709.486	15287.75
710.241	15261.75
710.997	15258.75
711.752	15121.75
712.508	14909.75
713.263	14580.75
714.018	14182.75
714.773	13842.75
715.528	13432.75
716.283	12957.75
717.038	12610.75
717.793	12243.75
718.548	11727.75
719.303	11286.75
720.057	10797.75
720.812	10349.75
721.566	10017.75
722.321	9686.75
723.075	9410.75
723.829	9176.75
724.583	8954.75
725.337	8784.75
726.091	8668.75
726.845	8563.75
727.599	8491.75
728.353	8422.75
729.106	8273.75
729.86	8218.75
730.614	8249.75
731.367	8319.75
732.12	8372.75
732.874	8266.75
733.627	8040.75
734.38	7648.75
735.133	7226.75
735.886	6936.75
736.639	6714.75
737.392	6520.75
738.145	6454.75
738.897	6400.75
739.65	6319.75
740.403	6212.75
741.155	6075.75
741.907	5836.75
742.66	5421.75
743.412	4879.75
744.164	4265.75
744.916	3541.75
745.668	2673.75
746.42	1828.75
747.172	1118.75
747.924	580.75
748.676	317.75
749.427	201.75
750.179	151.75
750.93	139.75
751.682	103.75
752.433	104.75
753.184	117.75
753.935	93.75
754.687	68.75
755.438	89.75
756.189	82.75
756.939	74.75
757.69	69.75
758.441	82.75
759.192	75.75
759.942	74.75
760.693	72.75
761.443	79.75
762.194	68.75
762.944	69.75
763.694	76.75
764.444	62.75
765.194	70.75
765.944	67.75
766.694	56.75
767.444	65.75
768.194	54.75
768.943	46.75
769.693	61.75
770.443	51.75
771.192	68.75
771.941	43.75
772.691	41.75
773.44	47.75
774.189	53.75
774.938	44.75
775.687	44.75
776.436	47.75
777.185	39.75
777.934	53.75
778.683	44.75
779.431	56.75
780.18	47.75
780.928	32.75
781.677	35.75
782.425	56.75
783.173	52.75
783.922	49.75
784.67	49.75
785.418	48.75
786.166	58.75
786.914	36.75
787.661	35.75
788.409	51.75
789.157	51.75
789.904	18.75
790.652	43.75
791.399	35.75
792.147	53.75
792.894	45.75
793.641	42.75
794.388	282.75
795.136	39.75
795.883	34.75
796.629	32.75
797.376	26.75
798.123	29.75
798.87	40.75
799.616	32.75
800.363	42.75
801.109	28.75
801.856	33.75
802.602	12.75
803.349	33.75
804.095	36.75
804.841	36.75
805.587	30.75
806.333	33.75
807.079	31.75
807.825	27.75
808.57	17.75
809.316	45.75
810.062	27.75
810.807	23.75
811.553	34.75
812.298	26.75
813.043	33.75
813.788	34.75
814.534	21.75
815.279	30.75
816.024	12.75
816.769	30.75
817.514	15.75
818.258	39.75
819.003	37.75
819.748	365.75
820.492	28.75
821.237	99.75
821.981	18.75
822.726	29.75
823.47	21.75
824.214	10.75
824.958	24.75
825.702	17.75
826.446	18.75
827.19	19.75
827.934	21.75
828.678	11.75
829.421	21.75
830.165	16.75
830.909	20.75
831.652	18.75
832.395	15.75
833.139	23.75
833.882	33.75
834.625	18.75
835.368	19.75
836.111	18.75
836.854	19.75
837.597	23.75
838.34	21.75
839.083	16.75
839.825	19.75
840.568	16.75
841.311	14.75
842.053	23.75
842.795	16.75
843.538	20.75
844.28	19.75
845.022	12.75
845.764	20.75
846.506	6.75
847.248	15.75
847.99	17.75
848.732	22.75
849.474	18.75
850.215	18.75
850.957	21.75
851.698	20.75
852.44	18.75
853.181	39.75
853.922	20.75
854.664	29.75
855.405	27.75
856.146	21.75
856.887	10.75
857.628	30.75
858.369	10.75
859.109	22.75
859.85	21.75
860.591	12.75
861.331	20.75
862.072	18.75
862.812	10.75
863.553	12.75
864.293	32.75
865.033	19.75
865.773	21.75
866.513	16.75
867.253	15.75
867.993	11.75
868.733	32.75
869.473	13.75
870.213	30.75
870.952	13.75
871.692	13.75
872.431	26.75
873.171	15.75
873.91	22.75
874.649	24.75
875.388	30.75
876.128	13.75
876.867	19.75
877.606	22.75
878.345	19.75
879.083	11.75
879.822	17.75
880.561	26.75
881.299	23.75
882.038	28.75
882.777	18.75
883.515	18.75
884.253	220.75
884.992	29.75
885.73	8.75
886.468	14.75
887.206	22.75
887.944	31.75
888.682	25.75
889.42	22.75
890.157	22.75
890.895	28.75
891.633	22.75
892.37	20.75
893.108	18.75
893.845	24.75
894.583	22.75
895.32	28.75
896.057	12.75
896.794	23.75
897.531	18.75
898.268	15.75
899.005	32.75
899.742	24.75
900.479	14.75
901.215	12.75
901.952	25.75
902.689	26.75
903.425	8.75
904.162	-4.25
904.898	12.75
905.634	16.75
906.37	19.75
907.106	8.75
907.843	11.75
908.579	24.75
909.314	11.75
910.05	31.75
910.786	25.75
911.522	11.75
912.257	4.75
912.993	13.75
913.728	7.75
914.464	22.75
915.199	14.75
915.935	25.75
916.67	23.75
917.405	11.75
918.14	16.75
918.875	25.75
919.61	26.75
920.345	27.75
921.08	26.75
921.814	11.75
922.549	9.75
923.284	-12.25
924.018	19.75
924.752	15.75
925.487	21.75
926.221	23.75
926.955	22.75
927.69	22.75
928.424	14.75
929.158	18.75
929.892	8.75
930.625	25.75
931.359	23.75
932.093	21.75
932.827	26.75
933.56	17.75
934.294	26.75
935.027	17.75
935.761	27.75
936.494	30.75
937.227	23.75
937.96	20.75
938.693	22.75
939.426	22.75
940.159	15.75
940.892	14.75
941.625	20.75
942.358	16.75
943.091	31.75
943.823	10.75
944.556	11.75
945.288	28.75
946.021	27.75
946.753	20.75
947.485	30.75
948.217	18.75
948.95	26.75
949.682	13.75
950.414	14.75
951.146	21.75
951.877	17.75
952.609	21.75
953.341	16.75
954.073	34.75
954.804	13.75
955.536	27.75
956.267	19.75
956.998	7.75
957.73	7.75
958.461	20.75
959.192	25.75
959.923	10.75
960.654	28.75
961.385	10.75
962.116	11.75
962.847	23.75
963.578	22.75
964.308	32.75
965.039	16.75
965.769	8.75
966.5	15.75
967.23	23.75
967.961	14.75
968.691	34.75
969.421	25.75
970.151	16.75
970.881	17.75
971.611	22.75
972.341	23.75
973.071	7.75
973.801	25.75
974.53	18.75
975.26	16.75
975.99	14.75
976.719	16.75
977.448	20.75
978.178	27.75
978.907	25.75
979.636	16.75
980.365	11.75
981.095	-0.25
981.824	38.75
982.553	28.75
983.281	11.75
984.01	-1.25
984.739	4.75
985.468	-0.25
986.196	-11.25
986.925	49.75
987.653	33.75
988.382	16.75
989.11	21.75
989.838	29.75
990.566	29.75
991.295	8.75
992.023	11.75
992.751	18.75
993.478	8.75
994.206	32.75
994.934	15.75
995.662	0.75
996.389	-0.25
997.117	-0.25
997.845	7.75
