Data from Sample_Bg_Subt2_002.txt Node
Date: Tue Aug 27 12:41:44 EDT 2019
User: wcc
Spectrometer: QEPB0759
Trigger mode: 0
Integration Time (sec): 1.000000E0
Scans to average: 1
Electric dark correction enabled: true
Nonlinearity correction enabled: false
Boxcar width: 0
XAxis mode: Wavelengths
Number of Pixels in Spectrum: 1044
>>>>>Begin Spectral Data<<<<<
197.938	15.38
198.749	22.38
199.559	28.38
200.369	18.38
201.179	9.38
201.988	16.38
202.798	26.38
203.608	21.38
204.417	20.38
205.227	23.38
206.036	10.38
206.846	23.38
207.655	27.38
208.464	13.38
209.273	17.38
210.082	21.38
210.891	11.38
211.7	15.38
212.508	29.38
213.317	10.38
214.125	16.38
214.934	25.38
215.742	23.38
216.55	19.38
217.359	22.38
218.167	23.38
218.975	22.38
219.782	28.38
220.59	5.38
221.398	12.38
222.206	26.38
223.013	29.38
223.82	21.38
224.628	15.38
225.435	32.38
226.242	18.38
227.049	10.38
227.856	17.38
228.663	20.38
229.47	12.38
230.277	21.38
231.083	18.38
231.89	14.38
232.696	22.38
233.502	23.38
234.309	24.38
235.115	11.38
235.921	12.38
236.727	17.38
237.533	12.38
238.339	17.38
239.144	22.38
239.95	16.38
240.756	27.38
241.561	14.38
242.366	28.38
243.172	16.38
243.977	25.38
244.782	18.38
245.587	25.38
246.392	15.38
247.197	6.38
248.001	20.38
248.806	26.38
249.611	16.38
250.415	11.38
251.219	21.38
252.024	7.38
252.828	8.38
253.632	20.38
254.436	22.38
255.24	33.38
256.044	23.38
256.848	12.38
257.651	15.38
258.455	14.38
259.258	27.38
260.062	-259.62
260.865	17.38
261.668	23.38
262.471	5.38
263.274	14.38
264.077	15.38
264.88	7.38
265.683	19.38
266.486	3.38
267.288	18.38
268.091	33.38
268.893	19.38
269.696	21.38
270.498	19.38
271.3	22.38
272.102	12.38
272.904	25.38
273.706	20.38
274.508	13.38
275.309	40.38
276.111	26.38
276.913	6.38
277.714	20.38
278.515	14.38
279.317	20.38
280.118	14.38
280.919	15.38
281.72	20.38
282.521	34.38
283.322	16.38
284.122	9.38
284.923	18.38
285.724	13.38
286.524	30.38
287.325	23.38
288.125	15.38
288.925	25.38
289.725	15.38
290.525	21.38
291.325	17.38
292.125	6.38
292.925	27.38
293.724	22.38
294.524	15.38
295.324	23.38
296.123	11.38
296.922	20.38
297.722	23.38
298.521	20.38
299.32	30.38
300.119	20.38
300.918	23.38
301.716	25.38
302.515	26.38
303.314	24.38
304.112	20.38
304.911	12.38
305.709	15.38
306.507	18.38
307.306	13.38
308.104	26.38
308.902	18.38
309.7	20.38
310.498	20.38
311.295	16.38
312.093	26.38
312.891	26.38
313.688	29.38
314.485	18.38
315.283	11.38
316.08	20.38
316.877	32.38
317.674	7.38
318.471	27.38
319.268	22.38
320.065	10.38
320.862	23.38
321.658	19.38
322.455	24.38
323.251	16.38
324.047	27.38
324.844	18.38
325.64	12.38
326.436	23.38
327.232	11.38
328.028	9.38
328.824	30.38
329.62	20.38
330.415	28.38
331.211	11.38
332.006	25.38
332.802	30.38
333.597	14.38
334.392	28.38
335.187	16.38
335.982	17.38
336.777	22.38
337.572	24.38
338.367	18.38
339.162	25.38
339.956	12.38
340.751	16.38
341.545	33.38
342.34	10.38
343.134	16.38
343.928	14.38
344.722	26.38
345.516	24.38
346.31	8.38
347.104	20.38
347.898	22.38
348.691	22.38
349.485	22.38
350.278	25.38
351.072	30.38
351.865	246.38
352.658	23.38
353.452	17.38
354.245	15.38
355.038	19.38
355.83	18.38
356.623	26.38
357.416	29.38
358.209	16.38
359.001	20.38
359.794	23.38
360.586	35.38
361.378	27.38
362.17	1.38
362.963	15.38
363.755	15.38
364.546	11.38
365.338	21.38
366.13	24.38
366.922	1.38
367.713	20.38
368.505	30.38
369.296	23.38
370.088	23.38
370.879	13.38
371.67	24.38
372.461	17.38
373.252	13.38
374.043	14.38
374.834	21.38
375.625	34.38
376.415	15.38
377.206	18.38
377.996	34.38
378.787	24.38
379.577	13.38
380.367	13.38
381.157	12.38
381.947	15.38
382.737	15.38
383.527	17.38
384.317	21.38
385.107	26.38
385.896	10.38
386.686	20.38
387.475	17.38
388.265	23.38
389.054	25.38
389.843	20.38
390.632	23.38
391.421	25.38
392.21	21.38
392.999	8.38
393.788	19.38
394.576	19.38
395.365	31.38
396.154	10.38
396.942	20.38
397.73	18.38
398.519	25.38
399.307	24.38
400.095	21.38
400.883	3.38
401.671	19.38
402.459	18.38
403.246	9.38
404.034	29.38
404.822	21.38
405.609	22.38
406.396	28.38
407.184	18.38
407.971	24.38
408.758	10.38
409.545	16.38
410.332	20.38
411.119	37.38
411.906	22.38
412.693	26.38
413.479	20.38
414.266	14.38
415.052	24.38
415.839	11.38
416.625	19.38
417.411	30.38
418.197	19.38
418.983	40.38
419.769	17.38
420.555	20.38
421.341	28.38
422.127	31.38
422.912	22.38
423.698	13.38
424.483	17.38
425.269	36.38
426.054	13.38
426.839	24.38
427.624	10.38
428.409	21.38
429.194	19.38
429.979	28.38
430.764	25.38
431.549	28.38
432.333	33.38
433.118	12.38
433.902	10.38
434.687	20.38
435.471	14.38
436.255	15.38
437.039	28.38
437.823	24.38
438.607	32.38
439.391	31.38
440.175	-0.62
440.958	19.38
441.742	15.38
442.526	10.38
443.309	16.38
444.092	27.38
444.876	33.38
445.659	35.38
446.442	33.38
447.225	31.38
448.008	22.38
448.791	30.38
449.573	32.38
450.356	32.38
451.139	32.38
451.921	17.38
452.704	20.38
453.486	34.38
454.268	32.38
455.05	25.38
455.833	28.38
456.615	25.38
457.396	35.38
458.178	12.38
458.96	35.38
459.742	27.38
460.523	24.38
461.305	21.38
462.086	30.38
462.868	46.38
463.649	28.38
464.43	37.38
465.211	39.38
465.992	20.38
466.773	41.38
467.554	34.38
468.335	20.38
469.115	23.38
469.896	31.38
470.676	31.38
471.457	31.38
472.237	30.38
473.018	8.38
473.798	39.38
474.578	40.38
475.358	24.38
476.138	28.38
476.918	17.38
477.697	2.38
478.477	26.38
479.257	21.38
480.036	21.38
480.816	13.38
481.595	32.38
482.374	10.38
483.153	26.38
483.932	21.38
484.711	10.38
485.49	29.38
486.269	10.38
487.048	26.38
487.827	13.38
488.605	7.38
489.384	6.38
490.162	8.38
490.941	-3.62
491.719	12.38
492.497	16.38
493.275	20.38
494.053	22.38
494.831	4.38
495.609	12.38
496.387	21.38
497.164	15.38
497.942	14.38
498.72	19.38
499.497	13.38
500.274	13.38
501.052	22.38
501.829	28.38
502.606	25.38
503.383	23.38
504.16	38.38
504.937	34.38
505.714	27.38
506.49	31.38
507.267	24.38
508.043	16.38
508.82	22.38
509.596	12.38
510.373	13.38
511.149	20.38
511.925	24.38
512.701	10.38
513.477	23.38
514.253	12.38
515.029	30.38
515.804	29.38
516.58	13.38
517.356	28.38
518.131	13.38
518.906	23.38
519.682	11.38
520.457	24.38
521.232	6.38
522.007	19.38
522.782	14.38
523.557	8.38
524.332	17.38
525.107	24.38
525.881	8.38
526.656	11.38
527.43	28.38
528.205	14.38
528.979	14.38
529.753	25.38
530.527	24.38
531.302	18.38
532.076	20.38
532.849	16.38
533.623	21.38
534.397	5.38
535.171	33.38
535.944	30.38
536.718	16.38
537.491	22.38
538.265	11.38
539.038	17.38
539.811	20.38
540.584	15.38
541.357	7.38
542.13	31.38
542.903	12.38
543.676	13.38
544.449	13.38
545.221	12.38
545.994	18.38
546.766	12.38
547.539	7.38
548.311	17.38
549.083	13.38
549.855	7.38
550.627	30.38
551.399	19.38
552.171	21.38
552.943	30.38
553.715	15.38
554.486	32.38
555.258	9.38
556.029	26.38
556.801	14.38
557.572	24.38
558.343	14.38
559.114	17.38
559.886	26.38
560.657	13.38
561.427	19.38
562.198	19.38
562.969	20.38
563.74	25.38
564.51	9.38
565.281	17.38
566.051	11.38
566.822	19.38
567.592	13.38
568.362	13.38
569.132	22.38
569.902	37.38
570.672	17.38
571.442	27.38
572.212	29.38
572.982	22.38
573.751	23.38
574.521	31.38
575.29	13.38
576.06	17.38
576.829	4.38
577.598	5.38
578.367	14.38
579.136	13.38
579.905	15.38
580.674	21.38
581.443	19.38
582.212	9.38
582.981	20.38
583.749	16.38
584.518	26.38
585.286	21.38
586.054	25.38
586.823	20.38
587.591	4.38
588.359	27.38
589.127	6.38
589.895	25.38
590.663	12.38
591.431	29.38
592.198	21.38
592.966	20.38
593.734	15.38
594.501	8.38
595.268	27.38
596.036	34.38
596.803	20.38
597.57	26.38
598.337	11.38
599.104	22.38
599.871	25.38
600.638	15.38
601.405	35.38
602.171	30.38
602.938	35.38
603.704	26.38
604.471	22.38
605.237	39.38
606.004	32.38
606.77	28.38
607.536	15.38
608.302	26.38
609.068	39.38
609.834	28.38
610.599	21.38
611.365	35.38
612.131	30.38
612.896	34.38
613.662	24.38
614.427	25.38
615.193	36.38
615.958	32.38
616.723	35.38
617.488	46.38
618.253	20.38
619.018	37.38
619.783	41.38
620.548	45.38
621.312	25.38
622.077	46.38
622.842	37.38
623.606	39.38
624.37	19.38
625.135	31.38
625.899	41.38
626.663	40.38
627.427	49.38
628.191	32.38
628.955	45.38
629.719	35.38
630.483	37.38
631.246	44.38
632.01	30.38
632.773	48.38
633.537	46.38
634.3	43.38
635.063	26.38
635.827	33.38
636.59	27.38
637.353	23.38
638.116	37.38
638.879	39.38
639.641	43.38
640.404	53.38
641.167	43.38
641.929	35.38
642.692	24.38
643.454	40.38
644.216	20.38
644.979	42.38
645.741	35.38
646.503	40.38
647.265	40.38
648.027	30.38
648.789	36.38
649.551	36.38
650.312	41.38
651.074	47.38
651.835	40.38
652.597	37.38
653.358	42.38
654.12	37.38
654.881	36.38
655.642	37.38
656.403	42.38
657.164	44.38
657.925	41.38
658.686	42.38
659.447	46.38
660.207	53.38
660.968	32.38
661.728	33.38
662.489	47.38
663.249	54.38
664.01	31.38
664.77	38.38
665.53	37.38
666.29	35.38
667.05	52.38
667.81	43.38
668.57	60.38
669.329	40.38
670.089	39.38
670.849	41.38
671.608	51.38
672.368	29.38
673.127	44.38
673.886	38.38
674.646	35.38
675.405	41.38
676.164	51.38
676.923	45.38
677.682	32.38
678.44	48.38
679.199	55.38
679.958	60.38
680.717	38.38
681.475	48.38
682.233	46.38
682.992	28.38
683.75	46.38
684.508	43.38
685.266	42.38
686.024	47.38
686.782	50.38
687.54	45.38
688.298	44.38
689.056	37.38
689.814	38.38
690.571	50.38
691.329	52.38
692.086	53.38
692.843	35.38
693.601	37.38
694.358	43.38
695.115	48.38
695.872	40.38
696.629	41.38
697.386	41.38
698.143	40.38
698.9	30.38
699.656	42.38
700.413	27.38
701.169	35.38
701.926	48.38
702.682	37.38
703.438	49.38
704.195	42.38
704.951	37.38
705.707	28.38
706.463	36.38
707.219	26.38
707.974	42.38
708.73	37.38
709.486	37.38
710.241	31.38
710.997	35.38
711.752	46.38
712.508	45.38
713.263	31.38
714.018	28.38
714.773	50.38
715.528	22.38
716.283	35.38
717.038	39.38
717.793	36.38
718.548	35.38
719.303	40.38
720.057	27.38
720.812	29.38
721.566	34.38
722.321	34.38
723.075	30.38
723.829	18.38
724.583	22.38
725.337	37.38
726.091	24.38
726.845	31.38
727.599	23.38
728.353	39.38
729.106	28.38
729.86	31.38
730.614	23.38
731.367	-149.62
732.12	25.38
732.874	31.38
733.627	35.38
734.38	44.38
735.133	36.38
735.886	27.38
736.639	29.38
737.392	24.38
738.145	24.38
738.897	26.38
739.65	27.38
740.403	18.38
741.155	37.38
741.907	32.38
742.66	21.38
743.412	20.38
744.164	30.38
744.916	30.38
745.668	24.38
746.42	23.38
747.172	28.38
747.924	25.38
748.676	20.38
749.427	25.38
750.179	19.38
750.93	21.38
751.682	20.38
752.433	17.38
753.184	28.38
753.935	24.38
754.687	16.38
755.438	25.38
756.189	26.38
756.939	30.38
757.69	18.38
758.441	22.38
759.192	28.38
759.942	26.38
760.693	31.38
761.443	47.38
762.194	36.38
762.944	14.38
763.694	25.38
764.444	17.38
765.194	25.38
765.944	11.38
766.694	24.38
767.444	17.38
768.194	17.38
768.943	11.38
769.693	21.38
770.443	22.38
771.192	22.38
771.941	16.38
772.691	21.38
773.44	20.38
774.189	9.38
774.938	18.38
775.687	12.38
776.436	12.38
777.185	12.38
777.934	20.38
778.683	21.38
779.431	22.38
780.18	29.38
780.928	16.38
781.677	20.38
782.425	22.38
783.173	30.38
783.922	14.38
784.67	15.38
785.418	17.38
786.166	20.38
786.914	17.38
787.661	4.38
788.409	20.38
789.157	19.38
789.904	11.38
790.652	23.38
791.399	14.38
792.147	26.38
792.894	13.38
793.641	17.38
794.388	126.38
795.136	15.38
795.883	20.38
796.629	25.38
797.376	26.38
798.123	17.38
798.87	24.38
799.616	15.38
800.363	25.38
801.109	18.38
801.856	21.38
802.602	3.38
803.349	23.38
804.095	20.38
804.841	32.38
805.587	23.38
806.333	22.38
807.079	29.38
807.825	20.38
808.57	5.38
809.316	30.38
810.062	19.38
810.807	21.38
811.553	19.38
812.298	19.38
813.043	31.38
813.788	23.38
814.534	15.38
815.279	18.38
816.024	18.38
816.769	18.38
817.514	17.38
818.258	22.38
819.003	23.38
819.748	421.38
820.492	25.38
821.237	107.38
821.981	14.38
822.726	24.38
823.47	27.38
824.214	14.38
824.958	26.38
825.702	22.38
826.446	28.38
827.19	14.38
827.934	19.38
828.678	28.38
829.421	14.38
830.165	14.38
830.909	21.38
831.652	9.38
832.395	26.38
833.139	19.38
833.882	21.38
834.625	18.38
835.368	15.38
836.111	13.38
836.854	21.38
837.597	16.38
838.34	26.38
839.083	24.38
839.825	18.38
840.568	12.38
841.311	14.38
842.053	25.38
842.795	16.38
843.538	14.38
844.28	8.38
845.022	10.38
845.764	11.38
846.506	3.38
847.248	24.38
847.99	5.38
848.732	14.38
849.474	14.38
850.215	9.38
850.957	20.38
851.698	19.38
852.44	6.38
853.181	32.38
853.922	2.38
854.664	22.38
855.405	18.38
856.146	28.38
856.887	22.38
857.628	12.38
858.369	12.38
859.109	19.38
859.85	10.38
860.591	20.38
861.331	32.38
862.072	19.38
862.812	7.38
863.553	17.38
864.293	29.38
865.033	15.38
865.773	18.38
866.513	16.38
867.253	23.38
867.993	14.38
868.733	15.38
869.473	15.38
870.213	13.38
870.952	14.38
871.692	25.38
872.431	24.38
873.171	8.38
873.91	19.38
874.649	0.38
875.388	25.38
876.128	22.38
876.867	12.38
877.606	21.38
878.345	19.38
879.083	20.38
879.822	18.38
880.561	22.38
881.299	28.38
882.038	15.38
882.777	17.38
883.515	24.38
884.253	253.38
884.992	25.38
885.73	16.38
886.468	6.38
887.206	29.38
887.944	42.38
888.682	25.38
889.42	30.38
890.157	23.38
890.895	23.38
891.633	19.38
892.37	26.38
893.108	29.38
893.845	31.38
894.583	25.38
895.32	26.38
896.057	13.38
896.794	20.38
897.531	19.38
898.268	24.38
899.005	23.38
899.742	28.38
900.479	15.38
901.215	11.38
901.952	27.38
902.689	26.38
903.425	18.38
904.162	9.38
904.898	13.38
905.634	4.38
906.37	26.38
907.106	15.38
907.843	26.38
908.579	29.38
909.314	16.38
910.05	23.38
910.786	14.38
911.522	12.38
912.257	24.38
912.993	1.38
913.728	14.38
914.464	33.38
915.199	15.38
915.935	30.38
916.67	17.38
917.405	25.38
918.14	12.38
918.875	26.38
919.61	32.38
920.345	30.38
921.08	22.38
921.814	20.38
922.549	12.38
923.284	-25.62
924.018	13.38
924.752	24.38
925.487	34.38
926.221	22.38
926.955	14.38
927.69	15.38
928.424	20.38
929.158	22.38
929.892	8.38
930.625	24.38
931.359	15.38
932.093	16.38
932.827	22.38
933.56	23.38
934.294	13.38
935.027	14.38
935.761	25.38
936.494	26.38
937.227	12.38
937.96	30.38
938.693	25.38
939.426	12.38
940.159	12.38
940.892	13.38
941.625	8.38
942.358	17.38
943.091	25.38
943.823	13.38
944.556	11.38
945.288	28.38
946.021	20.38
946.753	16.38
947.485	24.38
948.217	15.38
948.95	24.38
949.682	19.38
950.414	19.38
951.146	24.38
951.877	26.38
952.609	25.38
953.341	11.38
954.073	30.38
954.804	16.38
955.536	26.38
956.267	21.38
956.998	6.38
957.73	9.38
958.461	19.38
959.192	16.38
959.923	32.38
960.654	26.38
961.385	17.38
962.116	18.38
962.847	26.38
963.578	16.38
964.308	24.38
965.039	21.38
965.769	19.38
966.5	30.38
967.23	14.38
967.961	16.38
968.691	25.38
969.421	24.38
970.151	18.38
970.881	23.38
971.611	27.38
972.341	22.38
973.071	11.38
973.801	27.38
974.53	22.38
975.26	7.38
975.99	12.38
976.719	18.38
977.448	23.38
978.178	16.38
978.907	14.38
979.636	21.38
980.365	10.38
981.095	22.38
981.824	25.38
982.553	22.38
983.281	7.38
984.01	0.38
984.739	6.38
985.468	0.38
986.196	-8.62
986.925	34.38
987.653	26.38
988.382	3.38
989.11	19.38
989.838	31.38
990.566	16.38
991.295	9.38
992.023	29.38
992.751	24.38
993.478	13.38
994.206	20.38
994.934	16.38
995.662	-1.62
996.389	1.38
997.117	-1.62
997.845	3.38
