Data from SampleKW32_Bg_Subt2_002.txt Node
Date: Fri Aug 23 09:23:09 EDT 2019
User: wcc
Spectrometer: QEPB0759
Trigger mode: 0
Integration Time (sec): 1.000000E0
Scans to average: 1
Electric dark correction enabled: true
Nonlinearity correction enabled: true
Boxcar width: 0
XAxis mode: Wavelengths
Number of Pixels in Spectrum: 1044
>>>>>Begin Spectral Data<<<<<
197.938	-7.05
198.749	-21.4
199.559	-7.05
200.369	-8.07
201.179	-16.27
201.988	-18.32
202.798	-9.1
203.608	-20.37
204.417	-19.35
205.227	-6.02
206.036	-15.25
206.846	-24.47
207.655	-25.5
208.464	-12.17
209.273	-2.95
210.082	-15.25
210.891	-30.63
211.7	-9.1
212.508	-23.45
213.317	-12.17
214.125	-14.22
214.934	-6.02
215.742	-7.05
216.55	-5
217.359	-10.12
218.167	-1.92
218.975	-23.45
219.782	-3.97
220.59	-9.1
221.398	-13.2
222.206	-8.07
223.013	-10.12
223.82	-19.35
224.628	-23.45
225.435	-12.17
226.242	-27.55
227.049	-9.1
227.856	-15.25
228.663	-8.07
229.47	-18.32
230.277	-22.42
231.083	-20.37
231.89	-22.42
232.696	-32.67
233.502	-13.2
234.309	-24.48
235.115	-21.4
235.921	-29.6
236.727	-21.4
237.533	-26.52
238.339	-37.8
239.144	-17.3
239.95	-6.02
240.756	-9.1
241.561	-25.5
242.366	-24.48
243.172	-19.35
243.977	-11.15
244.782	-22.42
245.587	-14.22
246.392	-23.45
247.197	-14.22
248.001	-5
248.806	-12.17
249.611	-30.63
250.415	-8.07
251.219	-18.32
252.024	4.23
252.828	-17.3
253.632	-3.97
254.436	11.41
255.24	-25.5
256.044	-1.92
256.848	-24.47
257.651	-14.22
258.455	-27.55
259.258	-24.47
260.062	1746.84
260.865	-12.17
261.668	7.3
262.471	-35.75
263.274	-31.65
264.077	-21.4
264.88	-24.47
265.683	-15.25
266.486	-12.17
267.288	-8.07
268.091	1.15
268.893	-43.95
269.696	-11.15
270.498	-13.2
271.3	-24.47
272.102	-20.37
272.904	-28.57
273.706	-9.1
274.508	-14.22
275.309	-34.72
276.111	-8.07
276.913	-14.22
277.714	-18.33
278.515	-28.58
279.317	-13.2
280.118	-12.17
280.919	-31.65
281.72	-13.2
282.521	-35.75
283.322	-19.35
284.122	-3.97
284.923	-17.3
285.724	-2.95
286.524	-19.35
287.325	-28.57
288.125	-36.78
288.925	-23.45
289.725	-48.05
290.525	-34.72
291.325	-21.4
292.125	-20.37
292.925	-23.45
293.724	-12.17
294.524	-22.43
295.324	-10.12
296.123	-20.37
296.922	-3.97
297.722	1.15
298.521	-20.37
299.32	-7.05
300.119	-30.63
300.918	-21.4
301.716	-1.92
302.515	-10.12
303.314	-12.17
304.112	-21.4
304.911	-11.15
305.709	-35.75
306.507	-12.17
307.306	-27.55
308.104	-18.32
308.902	-14.22
309.7	-20.37
310.498	-20.37
311.295	-29.6
312.093	-27.55
312.891	-33.7
313.688	-15.25
314.485	-11.15
315.283	-9.1
316.08	-13.2
316.877	-24.47
317.674	-17.3
318.471	-15.25
319.268	-2.95
320.065	-14.22
320.862	-30.62
321.658	1.15
322.455	-8.07
323.251	-37.8
324.047	-14.22
324.844	-26.52
325.64	-19.35
326.436	-6.02
327.232	-32.67
328.028	-16.27
328.824	-13.2
329.62	-15.25
330.415	-25.49
331.211	-20.37
332.006	-21.4
332.802	-31.65
333.597	-40.88
334.392	-17.3
335.187	-19.35
335.982	-0.9
336.777	-1.92
337.572	-29.6
338.367	-7.05
339.162	-22.42
339.956	-9.1
340.751	-1.92
341.545	-17.3
342.34	-22.42
343.134	-15.25
343.928	-24.47
344.722	-18.32
345.516	-23.45
346.31	-24.47
347.104	-27.55
347.898	-15.25
348.691	-20.37
349.485	-2.95
350.278	-26.52
351.072	-27.54
351.865	-78.92
352.658	4.23
353.452	-24.47
354.245	-16.27
355.038	-23.45
355.83	-12.17
356.623	-18.32
357.416	-25.5
358.209	-8.07
359.001	-29.6
359.794	-16.27
360.586	-14.22
361.378	-14.22
362.17	-20.37
362.963	-14.22
363.755	-15.25
364.546	-23.45
365.338	-13.2
366.13	-14.22
366.922	-16.27
367.713	-22.42
368.505	-16.27
369.296	-14.22
370.088	-13.2
370.879	-26.53
371.67	-34.72
372.461	-6.02
373.252	-11.15
374.043	-20.37
374.834	-28.58
375.625	-21.4
376.415	-24.47
377.206	-14.22
377.996	-12.17
378.787	-19.35
379.577	-25.5
380.367	-9.1
381.157	-5
381.947	-5
382.737	-1.92
383.527	-11.15
384.317	-17.3
385.107	-3.97
385.896	-20.37
386.686	-22.42
387.475	-15.25
388.265	-14.22
389.054	-37.79
389.843	-3.97
390.632	-13.2
391.421	-25.5
392.21	-8.07
392.999	-3.97
393.788	-8.07
394.576	-18.32
395.365	-22.42
396.154	-19.35
396.942	-19.35
397.73	-12.17
398.519	-12.17
399.307	-14.22
400.095	-24.47
400.883	-16.27
401.671	-10.12
402.459	-18.32
403.246	-18.32
404.034	-20.37
404.822	-25.5
405.609	-24.47
406.396	-18.32
407.184	-15.25
407.971	-12.17
408.758	-8.07
409.545	-0.9
410.332	-19.35
411.119	-22.42
411.906	-3.97
412.693	-18.32
413.479	-14.22
414.266	-20.37
415.052	-0.9
415.839	-11.15
416.625	-0.9
417.411	-17.3
418.197	-2.95
418.983	-26.52
419.769	-11.15
420.555	-35.75
421.341	0.13
422.127	-30.62
422.912	-19.35
423.698	-10.12
424.483	-20.37
425.269	-14.22
426.054	-16.27
426.839	-14.22
427.624	4.23
428.409	-18.32
429.194	-7.05
429.979	4.23
430.764	-5
431.549	-13.2
432.333	-27.55
433.118	-13.2
433.902	-22.42
434.687	-40.87
435.471	-44.97
436.255	-20.37
437.039	-15.25
437.823	-30.62
438.607	-16.27
439.391	-36.77
440.175	-13.2
440.958	-7.05
441.742	-18.32
442.526	-10.12
443.309	-21.4
444.092	-20.37
444.876	-16.27
445.659	-10.12
446.442	-17.3
447.225	-10.12
448.008	-12.17
448.791	-12.17
449.573	21.65
450.356	-15.25
451.139	-23.45
451.921	-19.35
452.704	-3.97
453.486	-20.37
454.268	-5
455.05	-0.9
455.833	-3.97
456.615	-3.97
457.396	-10.12
458.178	-11.15
458.96	-5
459.742	6.28
460.523	-18.32
461.305	-3.97
462.086	5.25
462.868	-25.49
463.649	-6.02
464.43	-2.95
465.211	-16.27
465.992	-10.12
466.773	-10.12
467.554	-9.1
468.335	-10.12
469.115	-1.92
469.896	1.15
470.676	-15.25
471.457	-20.37
472.237	-8.07
473.018	-0.9
473.798	-20.37
474.578	-12.17
475.358	-16.27
476.138	-8.07
476.918	-12.17
477.697	-9.1
478.477	-7.05
479.257	7.3
480.036	-1.92
480.816	-18.32
481.595	-15.25
482.374	-23.45
483.153	-25.5
483.932	-14.22
484.711	-23.45
485.49	-65.48
486.269	-35.75
487.048	-61.38
487.827	-26.52
488.605	-33.7
489.384	-32.68
490.162	-34.72
490.941	-40.87
491.719	-19.35
492.497	-35.75
493.275	-28.57
494.053	-19.35
494.831	-22.42
495.609	-14.22
496.387	-18.32
497.164	-42.92
497.942	-30.62
498.72	-19.35
499.497	-29.6
500.274	-14.22
501.052	-33.7
501.829	-24.47
502.606	-23.45
503.383	-26.52
504.16	-5
504.937	-30.62
505.714	-26.53
506.49	-10.12
507.267	-25.5
508.043	-32.67
508.82	-35.74
509.596	-14.22
510.373	-16.27
511.149	-34.73
511.925	-32.67
512.701	-9.1
513.477	-23.45
514.253	-25.5
515.029	-17.3
515.804	-25.5
516.58	-30.62
517.356	-13.2
518.131	-12.17
518.906	2.18
519.682	-23.45
520.457	-27.55
521.232	-2.95
522.007	-28.57
522.782	-24.48
523.557	-18.33
524.332	-24.48
525.107	-15.25
525.881	-10.12
526.656	-22.43
527.43	-21.4
528.205	-42.93
528.979	-29.6
529.753	-21.4
530.527	-33.7
531.302	-18.32
532.076	-42.92
532.849	-27.55
533.623	-35.75
534.397	-25.5
535.171	-15.25
535.944	-34.72
536.718	-42.93
537.491	-30.62
538.265	-32.68
539.038	-39.85
539.811	-53.17
540.584	-59.33
541.357	-73.68
542.13	-79.81
542.903	-64.44
543.676	-74.7
544.449	-57.27
545.221	-65.47
545.994	-39.85
546.766	-50.1
547.539	-36.78
548.311	-73.67
549.083	-34.72
549.855	-50.11
550.627	-51.12
551.399	-43.95
552.171	-40.87
552.943	-25.5
553.715	-25.5
554.486	-27.55
555.258	-11.15
556.029	-9.1
556.801	-11.15
557.572	-36.78
558.343	-13.2
559.114	-38.82
559.886	-28.57
560.657	1.15
561.427	-18.33
562.198	-26.53
562.969	-18.32
563.74	-15.25
564.51	-21.4
565.281	-26.52
566.051	-7.05
566.822	-13.2
567.592	-26.52
568.362	-11.15
569.132	-31.65
569.902	-23.44
570.672	-10.12
571.442	-25.5
572.212	-11.15
572.982	-15.25
573.751	-40.87
574.521	-22.42
575.29	-18.32
576.06	-30.62
576.829	-42.93
577.598	-29.6
578.367	-43.95
579.136	-19.35
579.905	-5
580.674	-29.6
581.443	-54.2
582.212	-53.18
582.981	-46
583.749	-30.63
584.518	-30.62
585.286	-21.4
586.054	-47.02
586.823	-37.8
587.591	-34.73
588.359	-45.99
589.127	-30.62
589.895	-21.4
590.663	-43.94
591.431	-41.9
592.198	-40.87
592.966	-29.6
593.734	-47.02
594.501	-30.62
595.268	-14.22
596.036	-38.82
596.803	-23.45
597.57	-26.52
598.337	-27.55
599.104	-39.85
599.871	-26.52
600.638	-15.25
601.405	-9.1
602.171	-6.02
602.938	-22.42
603.704	1.15
604.471	-13.2
605.237	-8.07
606.004	-29.6
606.77	-23.45
607.536	-19.34
608.302	-28.57
609.068	-40.87
609.834	-52.15
610.599	-84.93
611.365	-60.35
612.131	-52.15
612.896	-23.45
613.662	-50.09
614.427	-9.1
615.193	-26.52
615.958	-15.25
616.723	-16.27
617.488	4.23
618.253	7.3
619.018	-13.2
619.783	-17.3
620.548	-20.37
621.312	-7.05
622.077	0.13
622.842	-16.27
623.606	-25.49
624.37	-7.05
625.135	5.25
625.899	1.15
626.663	-13.2
627.427	-17.3
628.191	0.13
628.955	-29.59
629.719	-2.95
630.483	-30.62
631.246	-17.3
632.01	-10.12
632.773	-0.9
633.537	-5
634.3	10.38
635.063	9.35
635.827	10.38
636.59	-0.9
637.353	-6.02
638.116	4.23
638.879	-0.9
639.641	6.28
640.404	9.35
641.167	0.13
641.929	2.18
642.692	26.78
643.454	-1.92
644.216	12.43
644.979	-1.92
645.741	3.2
646.503	11.4
647.265	-7.05
648.027	4.23
648.789	1.15
649.551	-0.9
650.312	-1.92
651.074	14.48
651.835	1.15
652.597	23.7
653.358	-12.17
654.12	21.65
654.881	19.6
655.642	1.15
656.403	-0.9
657.164	-3.97
657.925	13.45
658.686	11.4
659.447	10.38
660.207	11.4
660.968	16.53
661.728	-10.12
662.489	-6.02
663.249	5.25
664.01	8.33
664.77	7.3
665.53	36
666.29	4.23
667.05	5.25
667.81	14.48
668.57	15.5
669.329	0.13
670.089	7.3
670.849	15.5
671.608	14.48
672.368	12.43
673.127	10.38
673.886	16.53
674.646	17.56
675.405	20.63
676.164	2.18
676.923	6.28
677.682	10.38
678.44	7.3
679.199	23.71
679.958	-22.42
680.717	18.58
681.475	10.38
682.233	19.6
682.992	1.15
683.75	3.2
684.508	15.5
685.266	11.4
686.024	1.15
686.782	15.5
687.54	25.75
688.298	7.3
689.056	1.15
689.814	5.25
690.571	12.43
691.329	15.5
692.086	14.48
692.843	19.6
693.601	21.65
694.358	12.43
695.115	15.51
695.872	29.86
696.629	-1.92
697.386	14.48
698.143	17.55
698.9	2.18
699.656	16.53
700.413	8.33
701.169	19.6
701.926	11.4
702.682	8.33
703.438	2.18
704.195	11.4
704.951	13.46
705.707	-12.17
706.463	-3.97
707.219	3.2
707.974	-22.42
708.73	-10.12
709.486	-8.07
710.241	-9.1
710.997	-5
711.752	1.15
712.508	17.55
713.263	3.2
714.018	16.53
714.773	-0.9
715.528	10.38
716.283	17.55
717.038	-7.05
717.793	-14.22
718.548	-11.15
719.303	9.35
720.057	-14.22
720.812	-5
721.566	-11.15
722.321	-23.45
723.075	-2.95
723.829	-13.2
724.583	-0.9
725.337	-13.2
726.091	-5
726.845	-2.95
727.599	-1.92
728.353	4.23
729.106	-8.07
729.86	1.15
730.614	-14.22
731.367	-27.32
732.12	-9.1
732.874	-5
733.627	-13.2
734.38	-9.1
735.133	13.45
735.886	-7.05
736.639	-20.37
737.392	-10.12
738.145	-5
738.897	2.18
739.65	8.33
740.403	-10.12
741.155	9.35
741.907	-17.3
742.66	-14.22
743.412	-9.1
744.164	-0.9
744.916	2.18
745.668	-23.45
746.42	-27.54
747.172	0.13
747.924	-16.27
748.676	-7.05
749.427	-10.12
750.179	-27.55
750.93	-1.92
751.682	-3.97
752.433	-16.27
753.184	-29.59
753.935	-12.17
754.687	-13.2
755.438	-32.67
756.189	-12.17
756.939	-20.37
757.69	-12.17
758.441	6.28
759.192	-15.25
759.942	-10.12
760.693	-27.55
761.443	-21.4
762.194	-17.3
762.944	-5
763.694	-17.3
764.444	-1.92
765.194	-9.1
765.944	-21.4
766.694	-28.57
767.444	-16.27
768.194	-2.95
768.943	-8.07
769.693	-41.9
770.443	-18.32
771.192	-52.15
771.941	-3.97
772.691	-24.47
773.44	-27.55
774.189	-9.1
774.938	-33.7
775.687	-17.3
776.436	-33.7
777.185	-27.55
777.934	-31.65
778.683	-11.15
779.431	-23.45
780.18	-27.55
780.928	-6.02
781.677	-24.47
782.425	-29.6
783.173	-28.57
783.922	-20.37
784.67	-11.15
785.418	-27.55
786.166	-21.4
786.914	-9.1
787.661	-23.45
788.409	-32.67
789.157	-11.15
789.904	-23.45
790.652	-21.4
791.399	-17.3
792.147	-13.2
792.894	10.38
793.641	-12.17
794.388	240.14
795.136	-2.95
795.883	-10.12
796.629	-10.12
797.376	-28.58
798.123	-18.32
798.87	-6.02
799.616	-30.62
800.363	-11.15
801.109	-20.37
801.856	-15.25
802.602	-23.45
803.349	-14.22
804.095	-21.39
804.841	-20.37
805.587	-6.02
806.333	-11.15
807.079	-25.5
807.825	-6.02
808.57	-32.67
809.316	-7.05
810.062	-33.7
810.807	-19.35
811.553	-10.12
812.298	-20.37
813.043	-17.3
813.788	-18.32
814.534	-8.07
815.279	-15.25
816.024	-25.5
816.769	-15.25
817.514	-13.2
818.258	-26.52
819.003	-18.32
819.748	-524.66
820.492	-6.02
821.237	39.84
821.981	-6.02
822.726	-27.55
823.47	-22.42
824.214	-11.15
824.958	-33.7
825.702	-43.95
826.446	-26.52
827.19	-21.4
827.934	-36.77
828.678	-3.97
829.421	-3.97
830.165	-25.5
830.909	-7.05
831.652	-25.5
832.395	-17.3
833.139	-17.3
833.882	-30.62
834.625	-22.42
835.368	-11.15
836.111	-21.4
836.854	-29.6
837.597	-19.35
838.34	-18.32
839.083	-18.32
839.825	-24.47
840.568	-6.02
841.311	-14.22
842.053	-7.05
842.795	-7.05
843.538	-12.17
844.28	-23.45
845.022	-15.25
845.764	-27.54
846.506	-16.27
847.248	-43.95
847.99	-32.67
848.732	-18.32
849.474	-19.35
850.215	-13.2
850.957	-19.35
851.698	-12.17
852.44	-27.55
853.181	-6.02
853.922	-29.6
854.664	-7.05
855.405	-23.44
856.146	-15.25
856.887	-14.22
857.628	-36.77
858.369	-15.25
859.109	-18.32
859.85	-19.35
860.591	-22.42
861.331	-17.3
862.072	-12.17
862.812	-29.6
863.553	-19.35
864.293	-20.37
865.033	-26.52
865.773	-0.9
866.513	-0.9
867.253	-12.17
867.993	-13.2
868.733	-37.8
869.473	-22.42
870.213	-33.69
870.952	-7.05
871.692	-25.5
872.431	-22.43
873.171	-18.32
873.91	-6.02
874.649	-14.22
875.388	-9.1
876.128	-25.5
876.867	-20.38
877.606	-9.1
878.345	-31.65
879.083	-19.35
879.822	-21.4
880.561	-39.85
881.299	-24.47
882.038	-17.3
882.777	7.3
883.515	-14.22
884.253	-4.94
884.992	-21.4
885.73	-19.35
886.468	0.13
887.206	-14.22
887.944	-24.47
888.682	-19.35
889.42	-19.35
890.157	-11.15
890.895	-7.05
891.633	-41.86
892.37	-24.47
893.108	-36.77
893.845	-26.52
894.583	-26.52
895.32	-1.92
896.057	-15.25
896.794	-11.15
897.531	-31.65
898.268	-22.42
899.005	-34.73
899.742	-19.35
900.479	-27.55
901.215	2.18
901.952	-17.3
902.689	-17.3
903.425	-10.12
904.162	-6.02
904.898	-22.42
905.634	-12.17
906.37	-14.22
907.106	0.13
907.843	-15.25
908.579	-14.22
909.314	-9.1
910.05	-25.5
910.786	-29.6
911.522	-28.58
912.257	-36.77
912.993	-8.07
913.728	-6.02
914.464	-29.6
915.199	-17.3
915.935	-29.6
916.67	-25.5
917.405	-18.32
918.14	-23.45
918.875	-14.22
919.61	-10.12
920.345	-24.47
921.08	-28.57
921.814	-5
922.549	-11.15
923.284	-36.77
924.018	-14.22
924.752	-15.25
925.487	-31.65
926.221	-9.1
926.955	-7.05
927.69	-2.95
928.424	-14.22
929.158	-21.4
929.892	-20.37
930.625	-13.2
931.359	-24.47
932.093	-2.95
932.827	-19.35
933.56	-17.3
934.294	-17.3
935.027	-10.12
935.761	-27.55
936.494	-10.12
937.227	-28.58
937.96	-26.52
938.693	-14.22
939.426	-14.22
940.159	-24.47
940.892	-12.17
941.625	-27.55
942.358	-32.67
943.091	-25.5
943.823	-32.68
944.556	-20.38
945.288	8.33
946.021	-10.12
946.753	-12.17
947.485	-18.32
948.217	-6.02
948.95	-38.82
949.682	-12.17
950.414	-26.53
951.146	-22.42
951.877	-17.3
952.609	17.56
953.341	-18.32
954.073	-19.35
954.804	-24.47
955.536	-14.22
956.267	-27.55
956.998	-5
957.73	-34.73
958.461	-23.45
959.192	-15.25
959.923	-15.25
960.654	-13.2
961.385	-10.12
962.116	-27.55
962.847	-21.4
963.578	-13.2
964.308	-17.3
965.039	-14.22
965.769	-15.25
966.5	-14.22
967.23	-19.35
967.961	-16.27
968.691	-24.47
969.421	-16.28
970.151	-33.7
970.881	-30.63
971.611	-39.85
972.341	-25.5
973.071	-19.35
973.801	-12.17
974.53	-1.92
975.26	-23.45
975.99	-19.35
976.719	-18.32
977.448	-14.22
978.178	-21.4
978.907	-10.12
979.636	-18.33
980.365	-21.4
981.095	-7.05
981.824	-32.67
982.553	-22.42
983.281	-22.42
984.01	-0.9
984.739	7.31
985.468	-12.19
986.196	-0.9
986.925	-18.32
987.653	-25.5
988.382	-17.3
989.11	-18.32
989.838	-6.02
990.566	0.13
991.295	-23.45
992.023	-18.32
992.751	-14.22
993.478	-8.07
994.206	-7.05
994.934	-25.5
995.662	-1.92
996.389	7.31
997.117	-10.13
997.845	11.41
