Data from SampleKW32_Subt2_009.txt Node
Date: Fri Aug 23 09:22:31 EDT 2019
User: wcc
Spectrometer: QEPB0759
Trigger mode: 0
Integration Time (sec): 1.000000E0
Scans to average: 1
Electric dark correction enabled: true
Nonlinearity correction enabled: true
Boxcar width: 0
XAxis mode: Wavelengths
Number of Pixels in Spectrum: 1044
>>>>>Begin Spectral Data<<<<<
197.938	-2.56
198.749	-17.94
199.559	-5.64
200.369	3.59
201.179	9.74
201.988	-13.84
202.798	-1.54
203.608	-16.91
204.417	-17.94
205.227	7.69
206.036	0.51
206.846	-7.69
207.655	-13.84
208.464	-14.86
209.273	0.51
210.082	-11.79
210.891	-11.79
211.7	-5.64
212.508	-24.09
213.317	5.64
214.125	-10.76
214.934	-1.54
215.742	-2.56
216.55	6.66
217.359	-5.64
218.167	-7.69
218.975	-16.91
219.782	11.79
220.59	-1.54
221.398	-9.74
222.206	-13.84
223.013	0.51
223.82	-5.64
224.628	0.51
225.435	4.61
226.242	-9.74
227.049	-14.86
227.856	8.71
228.663	8.71
229.47	-6.66
230.277	-9.74
231.083	-11.79
231.89	-10.76
232.696	-18.96
233.502	-2.56
234.309	-4.61
235.115	-1.54
235.921	3.59
236.727	-1.54
237.533	-10.76
238.339	-30.24
239.144	-7.69
239.95	3.59
240.756	3.59
241.561	-21.01
242.366	-26.14
243.172	-13.84
243.977	7.69
244.782	-22.04
245.587	0.51
246.392	-6.66
247.197	-2.56
248.001	7.69
248.806	7.69
249.611	1.54
250.415	-1.54
251.219	-6.66
252.024	-10.76
252.828	-0.51
253.632	1.54
254.436	0.51
255.24	-10.76
256.044	8.71
256.848	1.54
257.651	-9.74
258.455	-23.06
259.258	-17.94
260.062	-285.44
260.865	-15.89
261.668	11.79
262.471	-5.64
263.274	-10.76
264.077	0.51
264.88	-14.86
265.683	4.61
266.486	2.56
267.288	-5.64
268.091	8.71
268.893	-44.59
269.696	-0.51
270.498	-11.79
271.3	-33.31
272.102	-7.69
272.904	-30.24
273.706	-0.51
274.508	-4.61
275.309	-25.11
276.111	-8.71
276.913	8.71
277.714	2.56
278.515	-16.91
279.317	-10.76
280.118	3.59
280.919	-11.79
281.72	-4.61
282.521	-22.04
283.322	-13.84
284.122	-7.69
284.923	-17.94
285.724	-0.51
286.524	-6.66
287.325	-17.94
288.125	-23.07
288.925	-11.79
289.725	-40.49
290.525	-11.79
291.325	-22.04
292.125	-19.99
292.925	-25.11
293.724	-13.84
294.524	-10.76
295.324	-8.71
296.123	-12.81
296.922	-6.66
297.722	14.86
298.521	-6.66
299.32	7.69
300.119	-17.94
300.918	-21.01
301.716	-22.04
302.515	-21.01
303.314	-14.86
304.112	-27.17
304.911	-14.86
305.709	-17.94
306.507	-14.86
307.306	-15.89
308.104	-18.96
308.902	-10.76
309.7	-22.04
310.498	-27.16
311.295	-22.04
312.093	-15.89
312.891	-27.16
313.688	-9.74
314.485	-7.69
315.283	-6.66
316.08	-11.79
316.877	-23.06
317.674	-5.64
318.471	-16.92
319.268	-0.51
320.065	-13.84
320.862	-31.26
321.658	-8.71
322.455	6.66
323.251	-26.14
324.047	-22.04
324.844	-27.16
325.64	-10.76
326.436	-14.86
327.232	-27.16
328.028	-14.86
328.824	-5.64
329.62	-22.04
330.415	-19.99
331.211	-14.86
332.006	-14.86
332.802	-16.91
333.597	-16.91
334.392	-5.64
335.187	-12.81
335.982	8.71
336.777	2.56
337.572	-15.89
338.367	-9.74
339.162	-5.64
339.956	-6.66
340.751	2.56
341.545	-19.99
342.34	-11.79
343.134	2.56
343.928	-12.81
344.722	-15.89
345.516	-3.59
346.31	-33.32
347.104	-15.89
347.898	-24.09
348.691	-25.11
349.485	-4.61
350.278	-34.34
351.072	-6.66
351.865	-503.38
352.658	-2.56
353.452	-4.61
354.245	-17.94
355.038	-3.59
355.83	-11.79
356.623	-19.99
357.416	-8.71
358.209	0.51
359.001	-16.91
359.794	-14.86
360.586	-25.11
361.378	-5.64
362.17	-2.56
362.963	-23.07
363.755	-8.71
364.546	-12.81
365.338	-10.76
366.13	-11.79
366.922	-16.91
367.713	-13.84
368.505	2.56
369.296	-0.51
370.088	7.69
370.879	-7.69
371.67	-17.94
372.461	3.59
373.252	4.61
374.043	-8.71
374.834	10.76
375.625	19.99
376.415	11.79
377.206	28.19
377.996	30.24
378.787	48.68
379.577	63.04
380.367	91.75
381.157	110.18
381.947	129.66
382.737	152.2
383.527	174.74
384.317	230.05
385.107	265.96
385.896	277.17
386.686	342.75
387.475	381.66
388.265	451.36
389.054	504.4
389.843	603.93
390.632	637.67
391.421	703.18
392.21	791.18
392.999	887.49
393.788	979.5
394.576	1067.41
395.365	1141.03
396.154	1261.79
396.942	1352.83
397.73	1428.35
398.519	1557.11
399.307	1628.59
400.095	1713.33
400.883	1801.96
401.671	1899.24
402.459	2008.43
403.246	2116.75
404.034	2254.46
404.822	2380.86
405.609	2474.41
406.396	2598.68
407.184	2645.18
407.971	2737.46
408.758	2829.18
409.545	2864.63
410.332	2941.12
411.119	3034.93
411.906	3136.22
412.693	3218.16
413.479	3368.72
414.266	3544.09
415.052	3747.06
415.839	3959.76
416.625	4174.22
417.411	4431.03
418.197	4678.06
418.983	4864.27
419.769	5006.85
420.555	4984.86
421.341	4966.72
422.127	4893.55
422.912	4827.78
423.698	4809.8
424.483	4816.59
425.269	4860.39
426.054	4975.42
426.839	5099.19
427.624	5277.15
428.409	5453.2
429.194	5670.91
429.979	5924.78
430.764	6253.47
431.549	6460.94
432.333	6716.6
433.118	6977.15
433.902	7225.97
434.687	7390.94
435.471	7595.26
436.255	7859.84
437.039	8084.46
437.823	8331.81
438.607	8515.52
439.391	8541.02
440.175	8718.51
440.958	8882.17
441.742	9103.37
442.526	9290.49
443.309	9483.25
444.092	9686.59
444.876	9913.73
445.659	10132.16
446.442	10335.78
447.225	10600.3
448.008	11001.32
448.791	11924.53
449.573	13197.24
450.356	13301.73
451.139	12974.51
451.921	13223.7
452.704	13151.4
453.486	12902.71
454.268	13102.75
455.05	13501.16
455.833	13900.62
456.615	14324.08
457.396	14742.48
458.178	14951.6
458.96	14873.67
459.742	14875.54
460.523	15017.56
461.305	15391.95
462.086	15759.15
462.868	15860.8
463.649	15654.75
464.43	15344.87
465.211	15288.14
465.992	15862.41
466.773	16916.77
467.554	17759.91
468.335	17558.08
469.115	16796.08
469.896	15954.77
470.676	15177.22
471.457	14887.79
472.237	15595.38
473.018	16193.24
473.798	14982.55
474.578	13399.56
475.358	12619.31
476.138	12115.39
476.918	11718.27
477.697	11431.66
478.477	11256.23
479.257	11160.1
480.036	11359.6
480.816	11373.04
481.595	11163.58
482.374	10642.43
483.153	10161.2
483.932	9602.85
484.711	9008.45
485.49	8506.72
486.269	8092.26
487.048	7725.46
487.827	7510.51
488.605	7241.73
489.384	7035.95
490.162	6910.13
490.941	6995.25
491.719	7058.26
492.497	6757.91
493.275	6279.95
494.053	5873.86
494.831	5479.67
495.609	5144.95
496.387	4875.94
497.164	4539.3
497.942	4338.47
498.72	4057.36
499.497	3800.15
500.274	3551.63
501.052	3330.35
501.829	3072.6
502.606	2827.47
503.383	2617.3
504.16	2397.13
504.937	2120.62
505.714	1905.56
506.49	1706.09
507.267	1474.55
508.043	1293.39
508.82	1104.1
509.596	985.77
510.373	818.88
511.149	702.26
511.925	589.58
512.701	515.85
513.477	418.5
514.253	337.63
515.029	284.38
515.804	223.92
516.58	191.11
517.356	166.54
518.131	146.03
518.906	127.62
519.682	99.93
520.457	78.41
521.232	77.39
522.007	71.23
522.782	57.92
523.557	59.97
524.332	28.19
525.107	42.53
525.881	41.52
526.656	43.57
527.43	30.24
528.205	14.86
528.979	33.32
529.753	25.12
530.527	24.09
531.302	27.17
532.076	15.89
532.849	33.31
533.623	11.79
534.397	9.74
535.171	29.21
535.944	14.86
536.718	-2.56
537.491	19.98
538.265	2.56
539.038	23.06
539.811	6.66
540.584	8.71
541.357	-25.11
542.13	-32.28
542.903	-27.16
543.676	-26.14
544.449	-23.06
545.221	-36.39
545.994	10.76
546.766	-0.51
547.539	1.54
548.311	-25.11
549.083	0.51
549.855	-5.64
550.627	0.51
551.399	-6.66
552.171	-10.76
552.943	17.94
553.715	14.86
554.486	12.81
555.258	21.01
556.029	14.86
556.801	40.49
557.572	12.81
558.343	21.01
559.114	17.94
559.886	17.94
560.657	21.01
561.427	24.09
562.198	13.84
562.969	17.94
563.74	14.86
564.51	24.09
565.281	15.89
566.051	41.52
566.822	23.06
567.592	15.89
568.362	37.42
569.132	7.69
569.902	26.13
570.672	35.37
571.442	1.54
572.212	18.96
572.982	26.14
573.751	19.99
574.521	28.19
575.29	35.36
576.06	14.86
576.829	24.09
577.598	15.89
578.367	19.99
579.136	30.24
579.905	54.83
580.674	31.26
581.443	22.04
582.212	31.26
582.981	29.21
583.749	55.86
584.518	49.71
585.286	42.53
586.054	33.31
586.823	54.83
587.591	66.11
588.359	67.13
589.127	99.92
589.895	125.53
590.663	160.37
591.431	237.22
592.198	357.07
592.966	493.27
593.734	709.21
594.501	1004.03
595.268	1385.43
596.036	1856.02
596.803	2520.65
597.57	3306.9
598.337	4221.87
599.104	5314.18
599.871	6539.2
600.638	7939.2
601.405	9414.01
602.171	10998.41
602.938	12662.86
603.704	14406.01
604.471	16116.75
605.237	17844.58
606.004	19549.15
606.77	21214.35
607.536	22801.6
608.302	24390.53
609.068	25877.69
609.834	27354.41
610.599	28552.63
611.365	29950.51
612.131	31142.13
612.896	32279.33
613.662	33368.38
614.427	34134.18
615.193	34942.86
615.958	35597.53
616.723	36244.28
617.488	36877.5
618.253	37370.75
619.018	37655.28
619.783	37971.84
620.548	38304.65
621.312	38534.48
622.077	38688.19
622.842	38798.62
623.606	38936.32
624.37	39010.03
625.135	39002.58
625.899	38982.98
626.663	38788.28
627.427	38695.39
628.191	38506.78
628.955	38401.74
629.719	38322.2
630.483	38107.31
631.246	37812.65
632.01	37508.73
632.773	37307.3
633.537	36870.21
634.3	36439.95
635.063	36164.08
635.827	35787.71
636.59	35438.44
637.353	34991.65
638.116	34628.15
638.879	34278.52
639.641	33888.76
640.404	33531.97
641.167	33168.99
641.929	32790.44
642.692	32490.61
643.454	32142.68
644.216	31906.05
644.979	31721.35
645.741	31348.15
646.503	31267.05
647.265	31023.57
648.027	30820.3
648.789	30565.53
649.551	30266.46
650.312	29827.7
651.074	29199.86
651.835	28751.24
652.597	28312.39
653.358	27976.15
654.12	27699.03
654.881	27442.89
655.642	27236.03
656.403	27077.75
657.164	26883.53
657.925	26786.17
658.686	26658.51
659.447	26589.84
660.207	26573.24
660.968	26605.91
661.728	26638.76
662.489	26543.14
663.249	26731.24
664.01	26827.09
664.77	26868.95
665.53	26944.64
666.29	26961.46
667.05	27069.73
667.81	27066.38
668.57	27195.96
669.329	27210.22
670.089	27209.3
670.849	27347.3
671.608	27434.81
672.368	27450.36
673.127	27316.48
673.886	27377.13
674.646	27255.4
675.405	27128.18
676.164	27105.36
676.923	26846.3
677.682	26757.93
678.44	26598.44
679.199	26526.11
679.958	26435.07
680.717	26593.48
681.475	26923.15
682.233	27488.72
682.992	27596.57
683.75	27034.78
684.508	26258.37
685.266	25661.81
686.024	25211.41
686.782	24820.36
687.54	24554.44
688.298	24203.39
689.056	23818.57
689.814	23303.1
690.571	22772.04
691.329	22232.75
692.086	21792
692.843	21336.57
693.601	20926.44
694.358	20383.86
695.115	20037.64
695.872	19600.4
696.629	19341.3
697.386	19004.76
698.143	18650.17
698.9	18390.61
699.656	18261.16
700.413	18053.11
701.169	17883.44
701.926	17731.6
702.682	17548.9
703.438	17416.97
704.195	17234.65
704.951	17087.53
705.707	16983.44
706.463	16904.83
707.219	16816.16
707.974	16752.26
708.73	16791.11
709.486	16701.38
710.241	16660.01
710.997	16595.67
711.752	16441
712.508	16161.95
713.263	15880.87
714.018	15482.44
714.773	15028.65
715.528	14583.28
716.283	14027.9
717.038	13634.43
717.793	13173
718.548	12663.13
719.303	12148.32
720.057	11632.55
720.812	11144.91
721.566	10717.91
722.321	10359.99
723.075	10107.28
723.829	9807.65
724.583	9585.72
725.337	9366.19
726.091	9210.08
726.845	9038.59
727.599	8969.55
728.353	8856.58
729.106	8678.38
729.86	8546.42
730.614	8572.41
731.367	8648.73
732.12	8680.72
732.874	8544.24
733.627	8109.07
734.38	7695.56
735.133	7302.36
735.886	6960.49
736.639	6714.78
737.392	6545.83
738.145	6470.79
738.897	6385.54
739.65	6295.27
740.403	6140.19
741.155	5972.06
741.907	5668.62
742.66	5238.38
743.412	4685.28
744.164	4067.24
744.916	3353.26
745.668	2493.98
746.42	1641.59
747.172	973.36
747.924	490.25
748.676	241.37
749.427	154.25
750.179	108.13
750.93	118.37
751.682	91.74
752.433	77.38
753.184	65.08
753.935	70.22
754.687	64.07
755.438	41.51
756.189	43.56
756.939	40.49
757.69	43.57
758.441	51.76
759.192	46.64
759.942	46.63
760.693	31.26
761.443	39.46
762.194	45.62
762.944	43.57
763.694	41.51
764.444	52.79
765.194	45.61
765.944	25.11
766.694	15.89
767.444	31.26
768.194	34.34
768.943	24.09
769.693	12.81
770.443	7.69
771.192	0.51
771.941	28.19
772.691	-6.66
773.44	16.91
774.189	18.96
774.938	-6.66
775.687	2.56
776.436	-5.64
777.185	9.74
777.934	-3.59
778.683	5.64
779.431	2.56
780.18	3.59
780.928	21.01
781.677	8.71
782.425	6.66
783.173	2.56
783.922	5.64
784.67	16.91
785.418	-5.64
786.166	14.86
786.914	22.04
787.661	4.61
788.409	8.71
789.157	11.79
789.904	0.51
790.652	28.19
791.399	5.64
792.147	11.79
792.894	10.76
793.641	-5.64
794.388	390.98
795.136	14.86
795.883	19.99
796.629	-2.56
797.376	-15.89
798.123	0.51
798.87	1.54
799.616	-17.94
800.363	6.66
801.109	-21.01
801.856	-0.51
802.602	-16.92
803.349	-3.59
804.095	-2.56
804.841	-25.11
805.587	-10.76
806.333	-11.79
807.079	-5.64
807.825	4.61
808.57	-14.86
809.316	-3.59
810.062	-12.81
810.807	-14.86
811.553	2.56
812.298	-11.79
813.043	-13.84
813.788	-8.71
814.534	-7.69
815.279	-19.99
816.024	-23.06
816.769	-6.66
817.514	-1.54
818.258	-28.19
819.003	-13.84
819.748	-410.87
820.492	-1.54
821.237	-81.98
821.981	5.64
822.726	-34.34
823.47	-24.09
824.214	-5.64
824.958	-33.31
825.702	-36.39
826.446	-25.11
827.19	-12.81
827.934	-23.06
828.678	4.61
829.421	-24.09
830.165	-31.26
830.909	-11.79
831.652	-9.74
832.395	-26.14
833.139	-14.86
833.882	-30.23
834.625	-14.86
835.368	-16.91
836.111	-6.66
836.854	-41.51
837.597	-17.94
838.34	-15.89
839.083	-0.51
839.825	-21.01
840.568	-10.76
841.311	-29.21
842.053	-13.84
842.795	-7.69
843.538	-12.81
844.28	-11.79
845.022	-13.84
845.764	-21.01
846.506	-0.51
847.248	-25.11
847.99	-25.11
848.732	0.51
849.474	-11.79
850.215	-27.17
850.957	-23.07
851.698	-19.99
852.44	-3.59
853.181	-9.74
853.922	-27.16
854.664	-5.64
855.405	-25.11
856.146	-7.69
856.887	-5.64
857.628	-19.99
858.369	-0.51
859.109	-35.36
859.85	-16.91
860.591	-12.81
861.331	-35.37
862.072	-18.97
862.812	-23.07
863.553	-17.94
864.293	-33.31
865.033	-22.04
865.773	-10.76
866.513	5.64
867.253	-5.64
867.993	-6.66
868.733	-19.99
869.473	-15.89
870.213	-24.09
870.952	-27.17
871.692	-17.94
872.431	-18.97
873.171	-14.86
873.91	0.51
874.649	-14.87
875.388	-18.96
876.128	-23.06
876.867	-26.14
877.606	-19.99
878.345	-7.69
879.083	-7.69
879.822	-13.84
880.561	-23.06
881.299	-15.89
882.038	-19.99
882.777	-0.51
883.515	-26.14
884.253	7.6
884.992	-14.86
885.73	-11.79
886.468	-8.71
887.206	-6.66
887.944	-32.29
888.682	-17.94
889.42	-24.09
890.157	-0.51
890.895	-21.02
891.633	-24.06
892.37	-38.44
893.108	-19.99
893.845	-18.96
894.583	-21.01
895.32	7.69
896.057	-9.74
896.794	-22.04
897.531	-26.14
898.268	-22.04
899.005	-18.97
899.742	-5.64
900.479	-31.27
901.215	-18.96
901.952	-13.84
902.689	-28.19
903.425	-11.79
904.162	-11.79
904.898	-32.29
905.634	3.59
906.37	-27.16
907.106	-14.87
907.843	-15.89
908.579	-12.81
909.314	-8.71
910.05	-12.81
910.786	-18.96
911.522	-17.94
912.257	-43.56
912.993	-9.74
913.728	-16.92
914.464	-34.34
915.199	-22.04
915.935	-32.29
916.67	-25.12
917.405	-16.91
918.14	-31.26
918.875	-14.86
919.61	-11.79
920.345	-21.01
921.08	-42.53
921.814	-8.71
922.549	-12.81
923.284	-25.11
924.018	-16.92
924.752	-32.29
925.487	-34.34
926.221	-14.86
926.955	-15.89
927.69	-23.07
928.424	-10.76
929.158	-28.19
929.892	-19.99
930.625	-1.54
931.359	-5.64
932.093	1.54
932.827	-29.22
933.56	-24.09
934.294	-6.66
935.027	-1.54
935.761	-19.99
936.494	-14.86
937.227	-36.39
937.96	-22.04
938.693	-16.91
939.426	-12.81
940.159	-31.26
940.892	-14.86
941.625	-15.89
942.358	-26.14
943.091	-15.89
943.823	-26.14
944.556	-22.04
945.288	-1.54
946.021	-12.81
946.753	-10.76
947.485	-25.11
948.217	-6.66
948.95	-35.36
949.682	-26.14
950.414	-27.17
951.146	-12.81
951.877	-13.84
952.609	14.86
953.341	-23.06
954.073	-29.21
954.804	-28.19
955.536	-11.79
956.267	-35.36
956.998	-10.76
957.73	-37.42
958.461	-14.86
959.192	2.56
959.923	-24.09
960.654	-7.69
961.385	-6.66
962.116	-24.09
962.847	-17.94
963.578	-23.06
964.308	-34.34
965.039	-25.12
965.769	-29.21
966.5	-10.76
967.23	-7.69
967.961	-11.79
968.691	-26.14
969.421	-25.12
970.151	-31.26
970.881	-33.32
971.611	-33.31
972.341	-22.04
973.071	-31.26
973.801	-11.79
974.53	-19.99
975.26	-19.99
975.99	-21.01
976.719	-25.11
977.448	-13.84
978.178	-18.96
978.907	-13.84
979.636	-19.99
980.365	-16.91
981.095	-14.86
981.824	-36.39
982.553	-13.84
983.281	-28.19
984.01	-4.62
984.739	6.67
985.468	-8.72
986.196	3.59
986.925	-5.64
987.653	-5.64
988.382	-5.64
989.11	-22.04
989.838	5.64
990.566	7.69
991.295	-16.91
992.023	-19.99
992.751	-11.79
993.478	-2.56
994.206	-12.81
994.934	-15.89
995.662	-1.54
996.389	1.54
997.117	-7.69
997.845	10.77
