Data from Sample_Subt2_009.txt Node
Date: Tue Aug 27 12:41:06 EDT 2019
User: wcc
Spectrometer: QEPB0759
Trigger mode: 0
Integration Time (sec): 1.000000E0
Scans to average: 1
Electric dark correction enabled: true
Nonlinearity correction enabled: false
Boxcar width: 0
XAxis mode: Wavelengths
Number of Pixels in Spectrum: 1044
>>>>>Begin Spectral Data<<<<<
197.938	22.88
198.749	34.88
199.559	28.88
200.369	26.88
201.179	26.88
201.988	31.88
202.798	35.88
203.608	16.88
204.417	22.88
205.227	36.88
206.036	25.88
206.846	38.88
207.655	31.88
208.464	23.88
209.273	37.88
210.082	28.88
210.891	26.88
211.7	42.88
212.508	35.88
213.317	31.88
214.125	25.88
214.934	37.88
215.742	26.88
216.55	28.88
217.359	21.88
218.167	38.88
218.975	34.88
219.782	36.88
220.59	24.88
221.398	28.88
222.206	29.88
223.013	36.88
223.82	38.88
224.628	27.88
225.435	36.88
226.242	24.88
227.049	23.88
227.856	29.88
228.663	35.88
229.47	27.88
230.277	43.88
231.083	33.88
231.89	26.88
232.696	30.88
233.502	39.88
234.309	36.88
235.115	41.88
235.921	27.88
236.727	22.88
237.533	26.88
238.339	38.88
239.144	27.88
239.95	37.88
240.756	36.88
241.561	28.88
242.366	37.88
243.172	19.88
243.977	24.88
244.782	28.88
245.587	32.88
246.392	26.88
247.197	11.88
248.001	35.88
248.806	41.88
249.611	39.88
250.415	21.88
251.219	34.88
252.024	35.88
252.828	25.88
253.632	26.88
254.436	32.88
255.24	33.88
256.044	36.88
256.848	24.88
257.651	28.88
258.455	34.88
259.258	18.88
260.062	985.88
260.865	18.88
261.668	29.88
262.471	11.88
263.274	22.88
264.077	19.88
264.88	14.88
265.683	28.88
266.486	10.88
267.288	31.88
268.091	36.88
268.893	30.88
269.696	34.88
270.498	28.88
271.3	22.88
272.102	24.88
272.904	22.88
273.706	37.88
274.508	27.88
275.309	48.88
276.111	32.88
276.913	27.88
277.714	32.88
278.515	23.88
279.317	30.88
280.118	30.88
280.919	24.88
281.72	23.88
282.521	33.88
283.322	31.88
284.122	20.88
284.923	14.88
285.724	18.88
286.524	38.88
287.325	39.88
288.125	28.88
288.925	37.88
289.725	12.88
290.525	30.88
291.325	20.88
292.125	20.88
292.925	22.88
293.724	31.88
294.524	22.88
295.324	27.88
296.123	22.88
296.922	29.88
297.722	31.88
298.521	26.88
299.32	26.88
300.119	23.88
300.918	26.88
301.716	27.88
302.515	28.88
303.314	29.88
304.112	33.88
304.911	25.88
305.709	31.88
306.507	32.88
307.306	19.88
308.104	37.88
308.902	34.88
309.7	38.88
310.498	24.88
311.295	23.88
312.093	40.88
312.891	21.88
313.688	30.88
314.485	19.88
315.283	29.88
316.08	19.88
316.877	36.88
317.674	20.88
318.471	32.88
319.268	17.88
320.065	18.88
320.862	31.88
321.658	23.88
322.455	36.88
323.251	31.88
324.047	39.88
324.844	24.88
325.64	13.88
326.436	31.88
327.232	30.88
328.028	19.88
328.824	45.88
329.62	32.88
330.415	20.88
331.211	15.88
332.006	31.88
332.802	32.88
333.597	28.88
334.392	23.88
335.187	27.88
335.982	31.88
336.777	35.88
337.572	29.88
338.367	26.88
339.162	25.88
339.956	25.88
340.751	31.88
341.545	26.88
342.34	23.88
343.134	28.88
343.928	28.88
344.722	30.88
345.516	19.88
346.31	16.88
347.104	32.88
347.898	32.88
348.691	18.88
349.485	26.88
350.278	14.88
351.072	25.88
351.865	168.88
352.658	25.88
353.452	19.88
354.245	28.88
355.038	30.88
355.83	22.88
356.623	34.88
357.416	26.88
358.209	25.88
359.001	21.88
359.794	29.88
360.586	38.88
361.378	18.88
362.17	8.88
362.963	29.88
363.755	26.88
364.546	28.88
365.338	19.88
366.13	34.88
366.922	33.88
367.713	27.88
368.505	22.88
369.296	29.88
370.088	39.88
370.879	39.88
371.67	38.88
372.461	31.88
373.252	33.88
374.043	39.88
374.834	40.88
375.625	58.88
376.415	41.88
377.206	52.88
377.996	79.88
378.787	70.88
379.577	81.88
380.367	106.88
381.157	111.88
381.947	139.88
382.737	147.88
383.527	178.88
384.317	212.88
385.107	249.88
385.896	271.88
386.686	312.88
387.475	368.88
388.265	413.88
389.054	466.88
389.843	509.88
390.632	563.88
391.421	633.88
392.21	679.88
392.999	756.88
393.788	838.88
394.576	925.88
395.365	1005.88
396.154	1074.88
396.942	1144.88
397.73	1240.88
398.519	1304.88
399.307	1373.88
400.095	1459.88
400.883	1507.88
401.671	1596.88
402.459	1693.88
403.246	1774.88
404.034	1872.88
404.822	1962.88
405.609	2014.88
406.396	2090.88
407.184	2152.88
407.971	2201.88
408.758	2246.88
409.545	2313.88
410.332	2380.88
411.119	2475.88
411.906	2507.88
412.693	2655.88
413.479	2799.88
414.266	2921.88
415.052	3085.88
415.839	3263.88
416.625	3440.88
417.411	3609.88
418.197	3747.88
418.983	3892.88
419.769	3941.88
420.555	3942.88
421.341	3865.88
422.127	3779.88
422.912	3802.88
423.698	3774.88
424.483	3792.88
425.269	3888.88
426.054	3930.88
426.839	4068.88
427.624	4199.88
428.409	4402.88
429.194	4534.88
429.979	4790.88
430.764	4972.88
431.549	5211.88
432.333	5333.88
433.118	5506.88
433.902	5660.88
434.687	5808.88
435.471	5962.88
436.255	6059.88
437.039	6288.88
437.823	6467.88
438.607	6564.88
439.391	6660.88
440.175	6737.88
440.958	6911.88
441.742	7103.88
442.526	7247.88
443.309	7407.88
444.092	7611.88
444.876	7783.88
445.659	7965.88
446.442	8130.88
447.225	8392.88
448.008	8804.88
448.791	9671.88
449.573	10398.88
450.356	10420.88
451.139	10328.88
451.921	10440.88
452.704	10344.88
453.486	10235.88
454.268	10461.88
455.05	10642.88
455.833	10946.88
456.615	11301.88
457.396	11568.88
458.178	11611.88
458.96	11528.88
459.742	11478.88
460.523	11596.88
461.305	11846.88
462.086	12139.88
462.868	12200.88
463.649	11919.88
464.43	11716.88
465.211	11727.88
465.992	12242.88
466.773	13093.88
467.554	13501.88
468.335	13294.88
469.115	12698.88
469.896	12014.88
470.676	11487.88
471.457	11346.88
472.237	11928.88
473.018	12014.88
473.798	11008.88
474.578	9953.88
475.358	9364.88
476.138	8985.88
476.918	8666.88
477.697	8427.88
478.477	8254.88
479.257	8250.88
480.036	8342.88
480.816	8342.88
481.595	8131.88
482.374	7754.88
483.153	7428.88
483.932	6975.88
484.711	6567.88
485.49	6189.88
486.269	5932.88
487.048	5661.88
487.827	5481.88
488.605	5309.88
489.384	5157.88
490.162	5090.88
490.941	5151.88
491.719	5153.88
492.497	4920.88
493.275	4566.88
494.053	4275.88
494.831	3967.88
495.609	3723.88
496.387	3514.88
497.164	3334.88
497.942	3144.88
498.72	2952.88
499.497	2760.88
500.274	2578.88
501.052	2397.88
501.829	2249.88
502.606	2063.88
503.383	1894.88
504.16	1733.88
504.937	1556.88
505.714	1410.88
506.49	1271.88
507.267	1094.88
508.043	958.88
508.82	846.88
509.596	722.88
510.373	628.88
511.149	546.88
511.925	474.88
512.701	386.88
513.477	344.88
514.253	274.88
515.029	246.88
515.804	206.88
516.58	185.88
517.356	159.88
518.131	133.88
518.906	111.88
519.682	88.88
520.457	86.88
521.232	75.88
522.007	76.88
522.782	74.88
523.557	63.88
524.332	63.88
525.107	71.88
525.881	70.88
526.656	58.88
527.43	54.88
528.205	59.88
528.979	55.88
529.753	54.88
530.527	67.88
531.302	51.88
532.076	41.88
532.849	47.88
533.623	54.88
534.397	53.88
535.171	48.88
535.944	61.88
536.718	57.88
537.491	65.88
538.265	57.88
539.038	50.88
539.811	56.88
540.584	38.88
541.357	45.88
542.13	65.88
542.903	44.88
543.676	48.88
544.449	35.88
545.221	40.88
545.994	49.88
546.766	34.88
547.539	40.88
548.311	49.88
549.083	44.88
549.855	41.88
550.627	53.88
551.399	43.88
552.171	48.88
552.943	51.88
553.715	56.88
554.486	65.88
555.258	33.88
556.029	56.88
556.801	46.88
557.572	54.88
558.343	61.88
559.114	51.88
559.886	34.88
560.657	43.88
561.427	45.88
562.198	53.88
562.969	59.88
563.74	56.88
564.51	42.88
565.281	63.88
566.051	47.88
566.822	54.88
567.592	43.88
568.362	46.88
569.132	65.88
569.902	63.88
570.672	47.88
571.442	57.88
572.212	57.88
572.982	53.88
573.751	44.88
574.521	60.88
575.29	47.88
576.06	55.88
576.829	49.88
577.598	63.88
578.367	58.88
579.136	53.88
579.905	69.88
580.674	58.88
581.443	65.88
582.212	70.88
582.981	78.88
583.749	64.88
584.518	79.88
585.286	63.88
586.054	79.88
586.823	79.88
587.591	80.88
588.359	114.88
589.127	120.88
589.895	148.88
590.663	169.88
591.431	227.88
592.198	302.88
592.966	414.88
593.734	576.88
594.501	782.88
595.268	1089.88
596.036	1480.88
596.803	1959.88
597.57	2561.88
598.337	3266.88
599.104	4098.88
599.871	5059.88
600.638	6143.88
601.405	7315.88
602.171	8551.88
602.938	9823.88
603.704	11166.88
604.471	12553.88
605.237	13896.88
606.004	15200.88
606.77	16537.88
607.536	17851.88
608.302	19198.88
609.068	20310.88
609.834	21460.88
610.599	22561.88
611.365	23601.88
612.131	24587.88
612.896	25509.88
613.662	26306.88
614.427	26917.88
615.193	27695.88
615.958	28278.88
616.723	28733.88
617.488	29297.88
618.253	29702.88
619.018	30077.88
619.783	30367.88
620.548	30570.88
621.312	30799.88
622.077	30905.88
622.842	30977.88
623.606	31173.88
624.37	31146.88
625.135	31212.88
625.899	31146.88
626.663	31081.88
627.427	30905.88
628.191	30768.88
628.955	30712.88
629.719	30553.88
630.483	30394.88
631.246	30192.88
632.01	29936.88
632.773	29713.88
633.537	29375.88
634.3	29066.88
635.063	28815.88
635.827	28467.88
636.59	28245.88
637.353	27859.88
638.116	27675.88
638.879	27375.88
639.641	27120.88
640.404	26870.88
641.167	26629.88
641.929	26329.88
642.692	26122.88
643.454	25919.88
644.216	25713.88
644.979	25533.88
645.741	25331.88
646.503	25271.88
647.265	25164.88
648.027	25044.88
648.789	24892.88
649.551	24722.88
650.312	24302.88
651.074	23938.88
651.835	23579.88
652.597	23275.88
653.358	23119.88
654.12	22905.88
654.881	22723.88
655.642	22568.88
656.403	22444.88
657.164	22368.88
657.925	22289.88
658.686	22285.88
659.447	22277.88
660.207	22335.88
660.968	22390.88
661.728	22475.88
662.489	22502.88
663.249	22657.88
664.01	22756.88
664.77	22774.88
665.53	22938.88
666.29	22984.88
667.05	23059.88
667.81	23180.88
668.57	23273.88
669.329	23278.88
670.089	23334.88
670.849	23411.88
671.608	23511.88
672.368	23548.88
673.127	23545.88
673.886	23536.88
674.646	23409.88
675.405	23374.88
676.164	23325.88
676.923	23245.88
677.682	23145.88
678.44	22916.88
679.199	22916.88
679.958	22869.88
680.717	22980.88
681.475	23362.88
682.233	23893.88
682.992	24045.88
683.75	23478.88
684.508	22973.88
685.266	22408.88
686.024	22040.88
686.782	21674.88
687.54	21480.88
688.298	21251.88
689.056	20917.88
689.814	20532.88
690.571	20163.88
691.329	19775.88
692.086	19415.88
692.843	19029.88
693.601	18691.88
694.358	18275.88
695.115	17893.88
695.872	17625.88
696.629	17461.88
697.386	17124.88
698.143	16860.88
698.9	16611.88
699.656	16475.88
700.413	16302.88
701.169	16157.88
701.926	16117.88
702.682	16041.88
703.438	15834.88
704.195	15774.88
704.951	15629.88
705.707	15528.88
706.463	15491.88
707.219	15401.88
707.974	15425.88
708.73	15347.88
709.486	15293.88
710.241	15270.88
710.997	15250.88
711.752	15099.88
712.508	14902.88
713.263	14582.88
714.018	14236.88
714.773	13849.88
715.528	13441.88
716.283	12998.88
717.038	12627.88
717.793	12193.88
718.548	11753.88
719.303	11256.88
720.057	10812.88
720.812	10362.88
721.566	10023.88
722.321	9670.88
723.075	9416.88
723.829	9177.88
724.583	8980.88
725.337	8832.88
726.091	8657.88
726.845	8578.88
727.599	8466.88
728.353	8448.88
729.106	8299.88
729.86	8173.88
730.614	8234.88
731.367	8062.88
732.12	8396.88
732.874	8281.88
733.627	8017.88
734.38	7642.88
735.133	7268.88
735.886	6935.88
736.639	6728.88
737.392	6576.88
738.145	6449.88
738.897	6390.88
739.65	6327.88
740.403	6216.88
741.155	6104.88
741.907	5815.88
742.66	5407.88
743.412	4881.88
744.164	4280.88
744.916	3524.88
745.668	2672.88
746.42	1848.88
747.172	1096.88
747.924	591.88
748.676	319.88
749.427	209.88
750.179	152.88
750.93	139.88
751.682	115.88
752.433	106.88
753.184	117.88
753.935	97.88
754.687	73.88
755.438	92.88
756.189	95.88
756.939	83.88
757.69	79.88
758.441	90.88
759.192	75.88
759.942	75.88
760.693	75.88
761.443	75.88
762.194	78.88
762.944	60.88
763.694	86.88
764.444	82.88
765.194	74.88
765.944	59.88
766.694	65.88
767.444	62.88
768.194	49.88
768.943	54.88
769.693	71.88
770.443	64.88
771.192	63.88
771.941	51.88
772.691	39.88
773.44	58.88
774.189	54.88
774.938	49.88
775.687	55.88
776.436	43.88
777.185	51.88
777.934	35.88
778.683	42.88
779.431	50.88
780.18	46.88
780.928	35.88
781.677	48.88
782.425	42.88
783.173	65.88
783.922	49.88
784.67	44.88
785.418	49.88
786.166	53.88
786.914	55.88
787.661	41.88
788.409	54.88
789.157	50.88
789.904	46.88
790.652	29.88
791.399	47.88
792.147	44.88
792.894	38.88
793.641	34.88
794.388	253.88
795.136	35.88
795.883	38.88
796.629	30.88
797.376	41.88
798.123	31.88
798.87	41.88
799.616	32.88
800.363	44.88
801.109	23.88
801.856	39.88
802.602	18.88
803.349	36.88
804.095	38.88
804.841	22.88
805.587	34.88
806.333	31.88
807.079	27.88
807.825	35.88
808.57	31.88
809.316	40.88
810.062	35.88
810.807	26.88
811.553	27.88
812.298	41.88
813.043	41.88
813.788	38.88
814.534	32.88
815.279	29.88
816.024	25.88
816.769	35.88
817.514	30.88
818.258	32.88
819.003	34.88
819.748	439.88
820.492	34.88
821.237	105.88
821.981	22.88
822.726	36.88
823.47	29.88
824.214	29.88
824.958	31.88
825.702	31.88
826.446	28.88
827.19	31.88
827.934	23.88
828.678	28.88
829.421	16.88
830.165	24.88
830.909	21.88
831.652	20.88
832.395	25.88
833.139	18.88
833.882	35.88
834.625	17.88
835.368	21.88
836.111	12.88
836.854	28.88
837.597	24.88
838.34	20.88
839.083	34.88
839.825	15.88
840.568	29.88
841.311	26.88
842.053	26.88
842.795	24.88
843.538	25.88
844.28	23.88
845.022	22.88
845.764	23.88
846.506	10.88
847.248	29.88
847.99	15.88
848.732	34.88
849.474	14.88
850.215	12.88
850.957	21.88
851.698	26.88
852.44	19.88
853.181	26.88
853.922	22.88
854.664	22.88
855.405	28.88
856.146	28.88
856.887	21.88
857.628	17.88
858.369	15.88
859.109	23.88
859.85	22.88
860.591	13.88
861.331	36.88
862.072	29.88
862.812	15.88
863.553	21.88
864.293	32.88
865.033	25.88
865.773	28.88
866.513	27.88
867.253	28.88
867.993	19.88
868.733	22.88
869.473	18.88
870.213	30.88
870.952	18.88
871.692	17.88
872.431	30.88
873.171	17.88
873.91	31.88
874.649	15.88
875.388	35.88
876.128	23.88
876.867	27.88
877.606	20.88
878.345	26.88
879.083	18.88
879.822	23.88
880.561	33.88
881.299	28.88
882.038	15.88
882.777	24.88
883.515	7.88
884.253	66.88
884.992	28.88
885.73	19.88
886.468	22.88
887.206	31.88
887.944	27.88
888.682	26.88
889.42	27.88
890.157	18.88
890.895	30.88
891.633	21.88
892.37	32.88
893.108	25.88
893.845	27.88
894.583	24.88
895.32	28.88
896.057	15.88
896.794	27.88
897.531	28.88
898.268	18.88
899.005	32.88
899.742	27.88
900.479	18.88
901.215	8.88
901.952	29.88
902.689	26.88
903.425	14.88
904.162	3.88
904.898	16.88
905.634	13.88
906.37	18.88
907.106	25.88
907.843	28.88
908.579	32.88
909.314	16.88
910.05	26.88
910.786	32.88
911.522	14.88
912.257	16.88
912.993	16.88
913.728	15.88
914.464	33.88
915.199	22.88
915.935	25.88
916.67	29.88
917.405	20.88
918.14	29.88
918.875	22.88
919.61	33.88
920.345	23.88
921.08	17.88
921.814	27.88
922.549	24.88
923.284	28.88
924.018	20.88
924.752	25.88
925.487	26.88
926.221	20.88
926.955	19.88
927.69	23.88
928.424	27.88
929.158	24.88
929.892	16.88
930.625	26.88
931.359	32.88
932.093	21.88
932.827	24.88
933.56	22.88
934.294	19.88
935.027	12.88
935.761	28.88
936.494	24.88
937.227	24.88
937.96	24.88
938.693	21.88
939.426	30.88
940.159	14.88
940.892	22.88
941.625	13.88
942.358	19.88
943.091	28.88
943.823	22.88
944.556	24.88
945.288	29.88
946.021	25.88
946.753	29.88
947.485	29.88
948.217	21.88
948.95	25.88
949.682	3.88
950.414	21.88
951.146	38.88
951.877	18.88
952.609	21.88
953.341	6.88
954.073	28.88
954.804	25.88
955.536	33.88
956.267	14.88
956.998	15.88
957.73	23.88
958.461	22.88
959.192	31.88
959.923	31.88
960.654	28.88
961.385	14.88
962.116	18.88
962.847	20.88
963.578	15.88
964.308	16.88
965.039	22.88
965.769	28.88
966.5	31.88
967.23	15.88
967.961	10.88
968.691	28.88
969.421	19.88
970.151	29.88
970.881	25.88
971.611	36.88
972.341	18.88
973.071	16.88
973.801	25.88
974.53	24.88
975.26	20.88
975.99	10.88
976.719	21.88
977.448	27.88
978.178	18.88
978.907	30.88
979.636	28.88
980.365	19.88
981.095	18.88
981.824	26.88
982.553	15.88
983.281	9.88
984.01	-2.12
984.739	7.88
985.468	-2.12
986.196	-7.12
986.925	27.88
987.653	30.88
988.382	8.88
989.11	23.88
989.838	34.88
990.566	24.88
991.295	13.88
992.023	22.88
992.751	21.88
993.478	11.88
994.206	36.88
994.934	22.88
995.662	-1.12
996.389	1.88
997.117	1.88
997.845	0.88
