Data from SampleKW32_Bg_Subt2_007.txt Node
Date: Fri Aug 23 09:23:14 EDT 2019
User: wcc
Spectrometer: QEPB0759
Trigger mode: 0
Integration Time (sec): 1.000000E0
Scans to average: 1
Electric dark correction enabled: true
Nonlinearity correction enabled: true
Boxcar width: 0
XAxis mode: Wavelengths
Number of Pixels in Spectrum: 1044
>>>>>Begin Spectral Data<<<<<
197.938	-10.38
198.749	-34.98
199.559	-24.73
200.369	-15.51
201.179	-14.48
201.988	-22.68
202.798	-8.33
203.608	-38.06
204.417	-24.73
205.227	-10.38
206.036	-18.58
206.846	-32.93
207.655	-27.8
208.464	-20.63
209.273	-10.38
210.082	-14.48
210.891	-33.96
211.7	-29.86
212.508	-17.56
213.317	-15.51
214.125	-24.73
214.934	-14.48
215.742	-15.51
216.55	-18.58
217.359	-30.88
218.167	-11.4
218.975	-30.88
219.782	-19.61
220.59	-28.83
221.398	-15.51
222.206	-28.83
223.013	-22.68
223.82	-22.68
224.628	-22.68
225.435	-13.45
226.242	-24.73
227.049	-37.03
227.856	-17.56
228.663	-19.6
229.47	-21.66
230.277	-18.58
231.083	-9.35
231.89	-34.98
232.696	-15.5
233.502	-31.91
234.309	-31.91
235.115	-31.9
235.921	-14.48
236.727	-15.51
237.533	-19.6
238.339	-41.13
239.144	-27.8
239.95	-17.55
240.756	-22.68
241.561	-20.63
242.366	-27.81
243.172	-26.78
243.977	-24.73
244.782	-30.88
245.587	-15.5
246.392	-9.35
247.197	-7.3
248.001	-21.66
248.806	-24.73
249.611	-26.78
250.415	-18.58
251.219	-24.73
252.024	-17.55
252.828	-19.61
253.632	-17.56
254.436	-5.25
255.24	-25.75
256.044	-12.43
256.848	-25.76
257.651	-19.61
258.455	-36.01
259.258	-24.73
260.062	-1996.66
260.865	-24.73
261.668	-12.43
262.471	-30.88
263.274	-21.65
264.077	-14.48
264.88	-30.88
265.683	-19.61
266.486	-14.48
267.288	-23.7
268.091	-4.23
268.893	-37.03
269.696	-15.5
270.498	-22.68
271.3	-30.88
272.102	-15.5
272.904	-34.98
273.706	-24.73
274.508	-22.68
275.309	-32.93
276.111	-15.5
276.913	-0.13
277.714	-23.71
278.515	-36.01
279.317	-15.5
280.118	-11.41
280.919	-28.83
281.72	-14.48
282.521	-41.13
283.322	-22.68
284.122	-12.43
284.923	-30.88
285.724	-7.3
286.524	-30.88
287.325	-33.95
288.125	-43.19
288.925	-25.76
289.725	-53.43
290.525	-22.68
291.325	-33.96
292.125	-22.68
292.925	-32.93
293.724	-17.56
294.524	-43.19
295.324	-23.71
296.123	-21.65
296.922	-18.58
297.722	-3.2
298.521	-14.48
299.32	-13.45
300.119	-22.68
300.918	-43.18
301.716	-20.63
302.515	-34.98
303.314	-26.78
304.112	-34.98
304.911	-42.15
305.709	-16.53
306.507	-37.03
307.306	-42.16
308.104	-44.21
308.902	-18.58
309.7	-36.01
310.498	-25.75
311.295	-25.76
312.093	-23.7
312.891	-33.95
313.688	-26.78
314.485	-6.28
315.283	-0.13
316.08	-25.75
316.877	-27.8
317.674	-24.73
318.471	-32.94
319.268	-22.68
320.065	-17.55
320.862	-20.63
321.658	-12.43
322.455	-2.18
323.251	-50.36
324.047	-19.61
324.844	-19.6
325.64	-10.38
326.436	-20.63
327.232	-20.63
328.028	-16.53
328.824	-18.58
329.62	-8.33
330.415	-27.8
331.211	-22.68
332.006	-15.5
332.802	-31.9
333.597	-23.7
334.392	-15.5
335.187	-17.55
335.982	-4.23
336.777	-17.55
337.572	-26.78
338.367	-25.75
339.162	-13.45
339.956	-10.38
340.751	-18.58
341.545	-37.03
342.34	-15.5
343.134	-18.58
343.928	-17.55
344.722	-17.55
345.516	-27.81
346.31	-36.01
347.104	-30.88
347.898	-20.63
348.691	-25.75
349.485	-14.48
350.278	-29.85
351.072	-16.53
351.865	-572.99
352.658	-14.48
353.452	-21.65
354.245	-16.53
355.038	-32.93
355.83	-16.53
356.623	-22.68
357.416	-22.68
358.209	-14.48
359.001	-27.81
359.794	-26.78
360.586	-28.83
361.378	-30.88
362.17	-30.88
362.963	-32.93
363.755	-19.6
364.546	-43.19
365.338	-26.78
366.13	-19.6
366.922	-22.68
367.713	-26.78
368.505	-17.55
369.296	-26.78
370.088	-8.33
370.879	-40.11
371.67	-38.06
372.461	-25.76
373.252	-20.63
374.043	-22.68
374.834	-26.78
375.625	-11.4
376.415	-30.88
377.206	-40.11
377.996	-34.98
378.787	-21.65
379.577	-33.96
380.367	-16.53
381.157	-18.58
381.947	-9.35
382.737	-24.73
383.527	-16.53
384.317	-16.53
385.107	-12.43
385.896	-32.93
386.686	-32.93
387.475	-31.9
388.265	-16.53
389.054	-20.62
389.843	-22.68
390.632	-26.78
391.421	-19.6
392.21	-21.65
392.999	-16.53
393.788	-16.53
394.576	-18.58
395.365	-38.05
396.154	-0.13
396.942	-18.58
397.73	-16.53
398.519	-22.68
399.307	-18.58
400.095	-23.7
400.883	-38.05
401.671	-17.55
402.459	-13.45
403.246	-22.68
404.034	-29.86
404.822	-25.76
405.609	-19.6
406.396	-15.5
407.184	-18.58
407.971	-22.68
408.758	-6.28
409.545	-12.43
410.332	-24.73
411.119	-6.28
411.906	-19.61
412.693	-30.88
413.479	-28.83
414.266	-26.78
415.052	-19.6
415.839	-24.73
416.625	-23.71
417.411	-8.33
418.197	-12.43
418.983	-38.05
419.769	-15.5
420.555	-30.88
421.341	-5.25
422.127	-30.88
422.912	-30.88
423.698	-15.5
424.483	-36.01
425.269	-33.96
426.054	-26.78
426.839	-30.88
427.624	-25.76
428.409	-16.53
429.194	-17.55
429.979	-9.35
430.764	-10.38
431.549	-25.76
432.333	-21.65
433.118	-17.56
433.902	-34.98
434.687	-57.53
435.471	-58.55
436.255	-34.98
437.039	-26.78
437.823	-27.8
438.607	-28.83
439.391	-49.33
440.175	-20.63
440.958	-26.78
441.742	-31.91
442.526	-27.81
443.309	-25.75
444.092	-23.7
444.876	-18.58
445.659	-25.76
446.442	-27.8
447.225	-26.78
448.008	-22.68
448.791	-17.55
449.573	9.1
450.356	-24.73
451.139	-32.93
451.921	-34.98
452.704	-8.33
453.486	-17.55
454.268	-25.75
455.05	-8.33
455.833	-21.65
456.615	-31.9
457.396	-21.65
458.178	-23.7
458.96	-30.88
459.742	-15.5
460.523	-34.98
461.305	-28.83
462.086	-12.43
462.868	-37.02
463.649	-11.4
464.43	-6.28
465.211	-30.88
465.992	-15.51
466.773	-17.55
467.554	-19.6
468.335	-18.58
469.115	-21.65
469.896	-14.48
470.676	-14.48
471.457	-22.68
472.237	-24.73
473.018	-14.48
473.798	-13.45
474.578	-18.58
475.358	-18.58
476.138	-19.61
476.918	-20.63
477.697	-15.5
478.477	-23.7
479.257	-6.28
480.036	-10.38
480.816	-32.93
481.595	-27.8
482.374	-47.28
483.153	-29.85
483.932	-23.7
484.711	-37.03
485.49	-57.53
486.269	-36.01
487.048	-64.71
487.827	-53.43
488.605	-41.13
489.384	-36.01
490.162	-38.05
490.941	-45.23
491.719	-41.13
492.497	-46.26
493.275	-46.26
494.053	-37.03
494.831	-33.96
495.609	-16.53
496.387	-31.9
497.164	-45.23
497.942	-32.93
498.72	-29.86
499.497	-33.96
500.274	-15.51
501.052	-26.78
501.829	-23.7
502.606	-23.71
503.383	-42.16
504.16	-22.68
504.937	-28.83
505.714	-26.78
506.49	-27.8
507.267	-23.71
508.043	-42.16
508.82	-39.08
509.596	-11.41
510.373	-29.86
511.149	-23.71
511.925	-54.46
512.701	-10.38
513.477	-34.98
514.253	-29.85
515.029	-40.11
515.804	-42.16
516.58	-40.1
517.356	-24.73
518.131	-19.6
518.906	-1.15
519.682	-18.58
520.457	-25.76
521.232	-17.55
522.007	-23.7
522.782	-18.58
523.557	-24.73
524.332	-37.03
525.107	-33.95
525.881	-22.68
526.656	-20.63
527.43	-28.83
528.205	-53.43
528.979	-20.63
529.753	-26.78
530.527	-24.73
531.302	-9.35
532.076	-45.23
532.849	-30.88
533.623	-39.08
534.397	-32.93
535.171	-29.86
535.944	-25.75
536.718	-56.51
537.491	-42.15
538.265	-40.11
539.038	-36
539.811	-53.43
540.584	-58.56
541.357	-70.86
542.13	-88.27
542.903	-70.84
543.676	-82.13
544.449	-81.11
545.221	-85.2
545.994	-50.36
546.766	-59.58
547.539	-56.51
548.311	-60.6
549.083	-50.36
549.855	-44.22
550.627	-56.5
551.399	-56.51
552.171	-48.3
552.943	-30.88
553.715	-31.91
554.486	-25.76
555.258	-32.93
556.029	-36.01
556.801	-8.33
557.572	-37.03
558.343	-24.73
559.114	-39.08
559.886	-29.85
560.657	-36.01
561.427	-39.09
562.198	-40.11
562.969	-23.7
563.74	-27.81
564.51	-23.71
565.281	-33.95
566.051	-12.43
566.822	-29.86
567.592	-24.73
568.362	-16.53
569.132	-34.98
569.902	-24.72
570.672	-17.56
571.442	-21.65
572.212	-15.5
572.982	-15.5
573.751	-21.65
574.521	-34.98
575.29	-27.8
576.06	-43.18
576.829	-49.33
577.598	-43.18
578.367	-56.51
579.136	-31.91
579.905	-18.58
580.674	-47.28
581.443	-63.68
582.212	-49.33
582.981	-47.28
583.749	-36.01
584.518	-32.93
585.286	-41.13
586.054	-61.62
586.823	-43.18
587.591	-54.46
588.359	-51.38
589.127	-50.35
589.895	-36
590.663	-46.25
591.431	-36
592.198	-45.23
592.966	-39.08
593.734	-41.12
594.501	-34.98
595.268	-20.63
596.036	-40.1
596.803	-21.66
597.57	-24.73
598.337	-21.65
599.104	-44.21
599.871	-28.83
600.638	-30.88
601.405	-22.68
602.171	-23.71
602.938	-27.8
603.704	-14.48
604.471	-23.71
605.237	-20.63
606.004	-25.75
606.77	-36
607.536	-23.7
608.302	-24.73
609.068	-33.95
609.834	-70.85
610.599	-105.69
611.365	-69.83
612.131	-64.7
612.896	-36
613.662	-42.15
614.427	-28.83
615.193	-24.73
615.958	-37.03
616.723	-21.65
617.488	-17.56
618.253	-3.2
619.018	-27.8
619.783	-18.58
620.548	-23.7
621.312	-18.58
622.077	-7.3
622.842	-26.78
623.606	-33.95
624.37	-21.65
625.135	-7.3
625.899	-16.53
626.663	-12.43
627.427	-17.55
628.191	-8.33
628.955	-33.95
629.719	-7.3
630.483	-25.75
631.246	-19.61
632.01	-33.96
632.773	-12.43
633.537	1.92
634.3	-5.25
635.063	1.92
635.827	-8.33
636.59	-13.45
637.353	-5.25
638.116	-4.23
638.879	-3.2
639.641	6.02
640.404	-13.45
641.167	-6.28
641.929	-5.25
642.692	11.15
643.454	-12.43
644.216	-2.18
644.979	-10.38
645.741	-8.33
646.503	-1.15
647.265	-16.53
648.027	-6.28
648.789	-22.68
649.551	-5.25
650.312	-7.3
651.074	-2.18
651.835	-10.38
652.597	-6.28
653.358	-8.33
654.12	1.92
654.881	-0.13
655.642	-9.35
656.403	-7.3
657.164	-22.68
657.925	3.97
658.686	-11.4
659.447	-7.3
660.207	-4.23
660.968	11.15
661.728	-5.25
662.489	-9.35
663.249	-17.55
664.01	11.15
664.77	-6.28
665.53	15.25
666.29	-15.51
667.05	-6.28
667.81	7.05
668.57	5
669.329	-8.33
670.089	-5.25
670.849	-2.18
671.608	-6.28
672.368	-0.13
673.127	-6.28
673.886	10.12
674.646	1.92
675.405	11.15
676.164	-2.18
676.923	-1.15
677.682	-11.4
678.44	11.15
679.199	11.15
679.958	-37.02
680.717	10.12
681.475	12.17
682.233	9.1
682.992	-3.2
683.75	-23.71
684.508	-6.28
685.266	7.05
686.024	9.1
686.782	7.05
687.54	2.95
688.298	-13.45
689.056	-7.3
689.814	0.9
690.571	3.97
691.329	-2.18
692.086	-12.43
692.843	1.92
693.601	2.95
694.358	7.05
695.115	12.17
695.872	-0.13
696.629	1.92
697.386	7.05
698.143	11.15
698.9	-0.13
699.656	-1.15
700.413	-3.2
701.169	-13.45
701.926	15.25
702.682	12.17
703.438	12.17
704.195	-5.25
704.951	-0.13
705.707	-23.71
706.463	-5.25
707.219	-5.25
707.974	-29.86
708.73	-32.93
709.486	-20.63
710.241	-13.45
710.997	-5.25
711.752	-24.73
712.508	-3.2
713.263	2.95
714.018	9.1
714.773	-17.55
715.528	11.15
716.283	-1.15
717.038	-6.28
717.793	-19.6
718.548	-13.45
719.303	-4.23
720.057	-6.28
720.812	-19.61
721.566	-21.66
722.321	-27.8
723.075	-11.4
723.829	-25.75
724.583	3.97
725.337	-16.53
726.091	-12.43
726.845	-7.3
727.599	-16.53
728.353	-25.75
729.106	-29.86
729.86	-29.85
730.614	-24.73
731.367	286.42
732.12	-13.45
732.874	-19.61
733.627	-25.75
734.38	-15.5
735.133	-16.53
735.886	-9.35
736.639	-23.71
737.392	-21.65
738.145	-6.28
738.897	-15.5
739.65	1.92
740.403	-9.35
741.155	-23.7
741.907	-30.88
742.66	-8.33
743.412	-17.56
744.164	-8.33
744.916	-8.33
745.668	-25.75
746.42	-27.8
747.172	-13.45
747.924	-25.76
748.676	-33.96
749.427	-20.63
750.179	-37.03
750.93	-19.6
751.682	-4.23
752.433	-28.83
753.184	-20.63
753.935	-19.61
754.687	-8.33
755.438	-21.65
756.189	-18.58
756.939	-13.45
757.69	-21.66
758.441	-10.38
759.192	-15.5
759.942	-18.58
760.693	-23.7
761.443	-20.63
762.194	-16.53
762.944	-23.71
763.694	-26.78
764.444	-11.4
765.194	-18.58
765.944	-10.38
766.694	-33.95
767.444	-24.73
768.194	-4.23
768.943	-19.61
769.693	-27.8
770.443	-38.05
771.192	-42.15
771.941	-7.3
772.691	-29.85
773.44	-26.78
774.189	-12.43
774.938	-27.8
775.687	-26.78
776.436	-41.13
777.185	-21.65
777.934	-18.58
778.683	-23.71
779.431	-28.83
780.18	-26.78
780.928	-5.25
781.677	-18.58
782.425	-1.15
783.173	-39.08
783.922	-27.8
784.67	-24.73
785.418	-28.83
786.166	-24.73
786.914	-11.4
787.661	-33.96
788.409	-40.11
789.157	-25.76
789.904	-29.86
790.652	-17.55
791.399	-23.7
792.147	-22.68
792.894	-12.43
793.641	-18.58
794.388	-88.64
795.136	-7.3
795.883	10.12
796.629	-18.58
797.376	-36.01
798.123	-22.68
798.87	-9.35
799.616	-50.36
800.363	-23.7
801.109	-25.75
801.856	-23.7
802.602	-21.66
803.349	-14.48
804.095	-23.7
804.841	-20.63
805.587	-27.81
806.333	-18.58
807.079	-18.58
807.825	-13.45
808.57	-18.58
809.316	-19.6
810.062	-47.28
810.807	-18.58
811.553	-5.25
812.298	-20.63
813.043	-9.35
813.788	-24.73
814.534	-9.35
815.279	-29.85
816.024	-34.98
816.769	-18.58
817.514	-21.65
818.258	-25.75
819.003	-20.63
819.748	-384.4
820.492	-12.43
821.237	-77.52
821.981	-0.13
822.726	-29.85
823.47	-38.05
824.214	-26.78
824.958	-48.3
825.702	-51.38
826.446	-28.83
827.19	-8.33
827.934	-31.9
828.678	-12.43
829.421	-8.33
830.165	-30.88
830.909	0.9
831.652	-29.85
832.395	-14.48
833.139	-5.25
833.882	-23.7
834.625	-20.63
835.368	-27.8
836.111	-13.46
836.854	-39.08
837.597	-17.55
838.34	-38.05
839.083	-7.3
839.825	-20.63
840.568	-12.43
841.311	-16.53
842.053	-40.1
842.795	-18.58
843.538	-19.6
844.28	-29.86
845.022	-11.41
845.764	-30.87
846.506	-19.61
847.248	-49.33
847.99	-18.58
848.732	-21.65
849.474	-28.83
850.215	-26.78
850.957	-31.91
851.698	-19.61
852.44	-41.13
853.181	-18.58
853.922	-15.5
854.664	-5.25
855.405	-21.65
856.146	-20.63
856.887	-24.73
857.628	-20.63
858.369	-14.48
859.109	-41.13
859.85	-16.53
860.591	-12.43
861.331	-28.83
862.072	-17.56
862.812	-24.73
863.553	-9.35
864.293	-24.73
865.033	-29.86
865.773	-6.28
866.513	-12.43
867.253	-4.23
867.993	-20.63
868.733	-27.81
869.473	-29.85
870.213	-33.95
870.952	-26.78
871.692	-29.86
872.431	-13.46
873.171	-22.68
873.91	-14.48
874.649	-17.56
875.388	-23.7
876.128	-23.71
876.867	-39.09
877.606	-25.76
878.345	-19.61
879.083	-21.66
879.822	-16.53
880.561	-26.78
881.299	-22.68
882.038	-22.68
882.777	2.95
883.515	-28.83
884.253	-27.48
884.992	-38.06
885.73	-26.78
886.468	-24.73
887.206	-32.92
887.944	-22.68
888.682	-21.65
889.42	-18.58
890.157	-15.5
890.895	-18.58
891.633	-48.26
892.37	-33.96
893.108	-36
893.845	-18.58
894.583	-36.01
895.32	-11.41
896.057	-30.88
896.794	-8.33
897.531	-45.23
898.268	-37.03
899.005	-27.81
899.742	-25.76
900.479	-28.83
901.215	-28.83
901.952	-33.96
902.689	-29.86
903.425	-18.58
904.162	-4.23
904.898	-18.58
905.634	-15.5
906.37	-34.98
907.106	-9.36
907.843	-17.55
908.579	-17.56
909.314	-14.48
910.05	-25.76
910.786	-30.88
911.522	-20.63
912.257	-39.08
912.993	0.9
913.728	-8.33
914.464	-42.16
915.199	-13.46
915.935	-13.46
916.67	-30.88
917.405	-33.95
918.14	-41.13
918.875	-21.66
919.61	-23.7
920.345	-26.78
921.08	-31.9
921.814	-23.71
922.549	-12.43
923.284	-31.9
924.018	-20.63
924.752	-34.98
925.487	-29.86
926.221	-10.38
926.955	-34.98
927.69	-29.86
928.424	-29.86
929.158	-32.93
929.892	-37.03
930.625	-6.28
931.359	-10.38
932.093	-1.15
932.827	-23.71
933.56	-22.68
934.294	-11.41
935.027	-25.76
935.761	-25.75
936.494	-25.76
937.227	-28.83
937.96	-31.9
938.693	-31.9
939.426	-19.61
940.159	-40.1
940.892	-14.48
941.625	-14.48
942.358	-30.88
943.091	-34.98
943.823	-32.93
944.556	-36.01
945.288	5
946.021	-26.78
946.753	-6.28
947.485	-17.55
948.217	-7.3
948.95	-34.98
949.682	-22.68
950.414	-30.88
951.146	-31.91
951.877	-21.66
952.609	17.3
953.341	-37.03
954.073	-31.9
954.804	-22.68
955.536	-17.55
956.267	-28.83
956.998	7.05
957.73	-39.09
958.461	-22.68
959.192	-8.33
959.923	-34.98
960.654	-17.55
961.385	-3.2
962.116	-32.93
962.847	-18.58
963.578	-16.53
964.308	-34.98
965.039	-25.76
965.769	-33.96
966.5	-18.58
967.23	-17.56
967.961	-30.88
968.691	-27.8
969.421	-17.56
970.151	-41.13
970.881	-23.71
971.611	-28.83
972.341	-27.81
973.071	-24.73
973.801	-20.63
974.53	-15.51
975.26	-26.78
975.99	-31.91
976.719	-22.68
977.448	-6.28
978.178	-28.83
978.907	-21.65
979.636	-4.23
980.365	-28.83
981.095	-25.75
981.824	-37.03
982.553	-19.6
983.281	-20.63
984.01	0.9
984.739	7.05
985.468	-7.31
986.196	0.9
986.925	-30.87
987.653	-15.5
988.382	-17.55
989.11	-29.85
989.838	-9.35
990.566	-16.53
991.295	-38.06
992.023	-27.8
992.751	-18.58
993.478	-13.45
994.206	-28.83
994.934	-24.73
995.662	-9.36
996.389	2.95
997.117	-5.26
997.845	10.13
