Data from SampleKW32_Subt2_002.txt Node
Date: Fri Aug 23 09:22:23 EDT 2019
User: wcc
Spectrometer: QEPB0759
Trigger mode: 0
Integration Time (sec): 1.000000E0
Scans to average: 1
Electric dark correction enabled: true
Nonlinearity correction enabled: true
Boxcar width: 0
XAxis mode: Wavelengths
Number of Pixels in Spectrum: 1044
>>>>>Begin Spectral Data<<<<<
197.938	-0.64
198.749	-4.74
199.559	-6.79
200.369	-9.87
201.179	4.48
201.988	-3.72
202.798	-25.24
203.608	-18.07
204.417	-5.77
205.227	14.74
206.036	-2.69
206.846	-16.02
207.655	-14.99
208.464	-11.92
209.273	15.76
210.082	-7.82
210.891	-0.64
211.7	-12.94
212.508	-23.19
213.317	7.56
214.125	-4.74
214.934	-4.74
215.742	-4.74
216.55	-5.77
217.359	15.76
218.167	-7.82
218.975	-0.64
219.782	-4.74
220.59	-12.94
221.398	0.38
222.206	-7.81
223.013	7.56
223.82	11.66
224.628	-5.77
225.435	6.53
226.242	-14.99
227.049	-21.14
227.856	3.46
228.663	-1.67
229.47	1.41
230.277	-6.79
231.083	0.38
231.89	-3.72
232.696	-2.69
233.502	11.66
234.309	-8.84
235.115	-1.67
235.921	-8.84
236.727	-11.92
237.533	-6.79
238.339	-26.27
239.144	-0.64
239.95	-5.76
240.756	-2.69
241.561	-20.12
242.366	-13.97
243.172	-3.72
243.977	-3.72
244.782	-20.12
245.587	0.38
246.392	4.48
247.197	-1.67
248.001	3.46
248.806	-10.89
249.611	-4.74
250.415	2.43
251.219	-5.77
252.024	-22.17
252.828	1.41
253.632	-4.74
254.436	9.61
255.24	-17.04
256.044	20.88
256.848	-3.72
257.651	-17.04
258.455	-14.99
259.258	-10.89
260.062	-1578.52
260.865	-7.82
261.668	3.46
262.471	-1.67
263.274	-16.02
264.077	-8.84
264.88	-13.97
265.683	0.38
266.486	-6.79
267.288	-6.79
268.091	20.89
268.893	-46.77
269.696	-10.89
270.498	-3.72
271.3	-12.94
272.102	-20.11
272.904	-13.97
273.706	9.61
274.508	7.56
275.309	-28.32
276.111	-10.89
276.913	-6.79
277.714	-9.87
278.515	-27.29
279.317	-2.69
280.118	-2.69
280.919	-12.94
281.72	-13.97
282.521	-30.37
283.322	-4.74
284.122	-10.89
284.923	-19.09
285.724	-8.84
286.524	-10.89
287.325	-27.29
288.125	-32.42
288.925	-9.87
289.725	-41.64
290.525	-21.14
291.325	0.38
292.125	-10.89
292.925	-8.84
293.724	0.38
294.524	-11.92
295.324	4.49
296.123	-21.14
296.922	-10.89
297.722	-16.01
298.521	-16.02
299.32	-6.79
300.119	-23.19
300.918	-23.19
301.716	-8.84
302.515	-14.99
303.314	-10.89
304.112	-19.09
304.911	-14.99
305.709	-18.07
306.507	0.38
307.306	-21.14
308.104	-12.94
308.902	2.43
309.7	-22.17
310.498	-16.01
311.295	-10.89
312.093	-21.14
312.891	-8.84
313.688	19.86
314.485	-5.77
315.283	4.48
316.08	-4.74
316.877	-21.14
317.674	-13.97
318.471	-16.02
319.268	-7.82
320.065	-20.12
320.862	-26.27
321.658	2.43
322.455	10.63
323.251	-21.14
324.047	-10.89
324.844	-11.92
325.64	1.41
326.436	1.41
327.232	-24.22
328.028	-9.87
328.824	3.46
329.62	-13.97
330.415	-9.86
331.211	-0.64
332.006	-0.64
332.802	-16.01
333.597	-24.22
334.392	-6.79
335.187	-13.97
335.982	9.61
336.777	-0.64
337.572	-23.19
338.367	-4.74
339.162	-9.87
339.956	-7.82
340.751	-10.89
341.545	-17.04
342.34	-21.14
343.134	-7.82
343.928	-10.89
344.722	-3.72
345.516	-5.77
346.31	-33.44
347.104	-16.02
347.898	-13.97
348.691	-21.14
349.485	4.49
350.278	-27.29
351.072	-4.74
351.865	20.65
352.658	-10.89
353.452	-11.92
354.245	-6.79
355.038	-10.89
355.83	6.53
356.623	-18.07
357.416	-2.69
358.209	-5.77
359.001	-13.97
359.794	-4.74
360.586	-7.82
361.378	-11.92
362.17	-5.77
362.963	-6.79
363.755	-6.79
364.546	-26.27
365.338	-3.72
366.13	0.38
366.922	-24.22
367.713	-19.09
368.505	-12.94
369.296	2.43
370.088	-0.64
370.879	-3.72
371.67	-20.12
372.461	2.43
373.252	14.74
374.043	-1.67
374.834	-3.72
375.625	20.88
376.415	23.96
377.206	23.96
377.996	37.29
378.787	45.48
379.577	50.61
380.367	86.5
381.157	103.9
381.947	134.66
382.737	165.39
383.527	192.03
384.317	222.75
385.107	259.68
385.896	290.36
386.686	343.65
387.475	392.8
388.265	463.52
389.054	503.25
389.843	583.32
390.632	661.09
391.421	718.4
392.21	796.17
392.999	880.2
393.788	984.48
394.576	1058.08
395.365	1146.02
396.154	1259.62
396.942	1332.26
397.73	1469.1
398.519	1556.98
399.307	1632.55
400.095	1697.88
400.883	1838.59
401.671	1936.88
402.459	2030.75
403.246	2149.27
404.034	2254.33
404.822	2366.46
405.609	2494.68
406.396	2611.81
407.184	2653.21
407.971	2764.84
408.758	2850.44
409.545	2889.98
410.332	2965.43
411.119	3059.24
411.906	3148.31
412.693	3276.04
413.479	3364.52
414.266	3583.63
415.052	3765.23
415.839	3990.12
416.625	4202.53
417.411	4467.44
418.197	4723.58
418.983	4942.21
419.769	5049.3
420.555	5023.26
421.341	5017.29
422.127	4942.09
422.912	4905.74
423.698	4876.6
424.483	4912.81
425.269	4908.94
426.054	4993.55
426.839	5136.57
427.624	5325.66
428.409	5495.61
429.194	5749.75
429.979	5964.12
430.764	6291.78
431.549	6531.58
432.333	6793.26
433.118	7051.76
433.902	7291.45
434.687	7487.68
435.471	7697
436.255	7883.91
437.039	8148.85
437.823	8376.02
438.607	8585.9
439.391	8647.64
440.175	8764.7
440.958	8946.47
441.742	9150.54
442.526	9349.73
443.309	9499.22
444.092	9767.9
444.876	10017.13
445.659	10231.51
446.442	10389.9
447.225	10694.56
448.008	11080.48
448.791	12065.75
449.573	13243.16
450.356	13372.67
451.139	13042.48
451.921	13309.67
452.704	13175.3
453.486	12924.61
454.268	13190.72
455.05	13540.06
455.833	13921.51
456.615	14453.94
457.396	14825.32
458.178	15037.41
458.96	14963.5
459.742	14926.39
460.523	15093.37
461.305	15434.78
462.086	15803.96
462.868	15930.55
463.649	15728.52
464.43	15434.65
465.211	15343.96
465.992	15901.22
466.773	16942.58
467.554	17813.61
468.335	17611.78
469.115	16853.82
469.896	16002.57
470.676	15284.01
471.457	14973.61
472.237	15646.18
473.018	16290.93
473.798	14948.45
474.578	13456.49
475.358	12681.3
476.138	12218.51
476.918	11814.41
477.697	11491.73
478.477	11334.36
479.257	11244.27
480.036	11392.59
480.816	11457.19
481.595	11183.53
482.374	10673.44
483.153	10219.35
483.932	9644.96
484.711	9031.47
485.49	8488.46
486.269	8106.24
487.048	7756.6
487.827	7527.54
488.605	7255.74
489.384	7075.2
490.162	6953.43
490.941	7026.42
491.719	7055.1
492.497	6810.31
493.275	6322.29
494.053	5878.79
494.831	5486.63
495.609	5169.15
496.387	4867.7
497.164	4563.53
497.942	4317.02
498.72	4074.5
499.497	3850.85
500.274	3583.04
501.052	3358.71
501.829	3117.26
502.606	2859.95
503.383	2647.74
504.16	2381.7
504.937	2138.85
505.714	1905.43
506.49	1700.86
507.267	1493.84
508.043	1294.29
508.82	1115.22
509.596	988.71
510.373	833.08
511.149	699.06
511.925	592.52
512.701	515.73
513.477	416.33
514.253	344.68
515.029	280.15
515.804	222.77
516.58	194.06
517.356	164.37
518.131	144.88
518.906	124.41
519.682	111.08
520.457	70.08
521.232	88.53
522.007	55.73
522.782	60.86
523.557	48.57
524.332	36.26
525.107	46.51
525.881	38.31
526.656	31.14
527.43	40.36
528.205	16.79
528.979	26.01
529.753	35.24
530.527	29.08
531.302	15.76
532.076	14.73
532.849	23.96
533.623	21.91
534.397	31.14
535.171	17.81
535.944	23.96
536.718	2.43
537.491	16.78
538.265	1.41
539.038	8.58
539.811	1.41
540.584	-8.84
541.357	-19.09
542.13	-18.06
542.903	-16.01
543.676	-36.52
544.449	-11.92
545.221	-29.34
545.994	-10.89
546.766	-8.84
547.539	-11.92
548.311	-22.17
549.083	-4.74
549.855	8.59
550.627	-4.74
551.399	-4.74
552.171	0.38
552.943	15.76
553.715	26.01
554.486	12.68
555.258	31.14
556.029	10.64
556.801	39.34
557.572	13.71
558.343	19.86
559.114	16.78
559.886	19.86
560.657	13.71
561.427	16.79
562.198	19.86
562.969	29.08
563.74	23.96
564.51	20.89
565.281	16.78
566.051	28.06
566.822	37.29
567.592	28.06
568.362	42.41
569.132	11.66
569.902	27.03
570.672	37.29
571.442	15.76
572.212	37.28
572.982	28.06
573.751	21.91
574.521	23.96
575.29	47.53
576.06	27.03
576.829	12.68
577.598	16.79
578.367	11.66
579.136	40.36
579.905	59.83
580.674	30.11
581.443	6.53
582.212	28.06
582.981	33.18
583.749	49.59
584.518	44.46
585.286	40.35
586.054	27.03
586.823	44.46
587.591	64.96
588.359	68.02
589.127	100.82
589.895	134.63
590.663	159.22
591.431	239.14
592.198	345.67
592.966	484.95
593.734	685.55
594.501	992.65
595.268	1380.19
596.036	1862.02
596.803	2484.83
597.57	3285.4
598.337	4195.34
599.104	5240.09
599.871	6525.94
600.638	7897.74
601.405	9369.63
602.171	10947.09
602.938	12634.69
603.704	14319.89
604.471	16085.68
605.237	17767.72
606.004	19464.43
606.77	21133.73
607.536	22811.4
608.302	24353.72
609.068	25911.25
609.834	27333.49
610.599	28554.49
611.365	29912.75
612.131	31181.63
612.896	32301.01
613.662	33202.62
614.427	34194.59
615.193	34926.84
615.958	35621.25
616.723	36250.13
617.488	36864.44
618.253	37309.89
619.018	37751.78
619.783	38000.61
620.548	38251.69
621.312	38487.49
622.077	38751.89
622.842	38886.28
623.606	38914.24
624.37	39106.69
625.135	39002.46
625.899	39059.69
626.663	38917.83
627.427	38691.28
628.191	38556.51
628.955	38356.75
629.719	38296.16
630.483	38111.17
631.246	37935.06
632.01	37474.74
632.773	37297.21
633.537	36952.68
634.3	36486.58
635.063	36159.98
635.827	35755.78
636.59	35434.34
637.353	35087.86
638.116	34681.64
638.879	34390.55
639.641	34004.72
640.404	33586.4
641.167	33285.88
641.929	32919.2
642.692	32593.58
643.454	32260.49
644.216	32008.99
644.979	31759.86
645.741	31479.78
646.503	31297.63
647.265	31063.07
648.027	30911.3
648.789	30697.13
649.551	30431.72
650.312	29814.7
651.074	29322.52
651.835	28793.69
652.597	28439.01
653.358	28049.3
654.12	27736.54
654.881	27523.97
655.642	27289.38
656.403	27164.78
657.164	26950.75
657.925	26839.53
658.686	26844.6
659.447	26678.87
660.207	26602.84
660.968	26722.68
661.728	26652.5
662.489	26667.83
663.249	26700.41
664.01	26829.94
664.77	26922.31
665.53	27058.41
666.29	27068.31
667.05	27104.27
667.81	27156.39
668.57	27269.12
669.329	27254.67
670.089	27330
670.849	27414.52
671.608	27462.42
672.368	27454.2
673.127	27333.19
673.886	27356.2
674.646	27364.21
675.405	27169.65
676.164	27123.07
676.923	26939.28
677.682	26792.47
678.44	26565.62
679.199	26490.32
679.958	26544.9
680.717	26544.82
681.475	26956.7
682.233	27613.38
682.992	27662.8
683.75	26979.19
684.508	26268.16
685.266	25729.07
686.024	25210.29
686.782	24851.96
687.54	24545.39
688.298	24212.19
689.056	23782.74
689.814	23273.21
690.571	22817.57
691.329	22282.28
692.086	21818.7
692.843	21339.43
693.601	20947.19
694.358	20450.36
695.115	20024.59
695.872	19651.03
696.629	19311.31
697.386	19028.53
698.143	18656.02
698.9	18450.26
699.656	18272.99
700.413	18099.82
701.169	17831.5
701.926	17665.69
702.682	17602.6
703.438	17404.88
704.195	17237.51
704.951	17136.28
705.707	16980.32
706.463	16903.71
707.219	16856.94
707.974	16807.01
708.73	16773.02
709.486	16706.24
710.241	16691.81
710.997	16582.58
711.752	16417.92
712.508	16212.73
713.263	15843.81
714.018	15450.35
714.773	15019.53
715.528	14500.18
716.283	14063.78
717.038	13616.29
717.793	13201.9
718.548	12643.97
719.303	12103.08
720.057	11569.23
720.812	11161.84
721.566	10789.08
722.321	10380.96
723.075	10093.09
723.829	9810.54
724.583	9538.32
725.337	9362.04
726.091	9175.75
726.845	9046.51
727.599	8975.47
728.353	8843.36
729.106	8694.37
729.86	8526.15
730.614	8565.23
731.367	8468.23
732.12	8623.18
732.874	8491.73
733.627	8157.32
734.38	7706.52
735.133	7324.44
735.886	6955.32
736.639	6697.48
737.392	6511.33
738.145	6451.46
738.897	6382.38
739.65	6270.87
740.403	6158.27
741.155	5990.15
741.907	5668.49
742.66	5256.49
743.412	4704.43
744.164	4084.38
744.916	3332.78
745.668	2478.56
746.42	1659.85
747.172	972.21
747.924	480.91
748.676	239.19
749.427	159.25
750.179	109.02
750.93	111.07
751.682	86.49
752.433	61.88
753.184	61.87
753.935	73.16
754.687	68.04
755.438	53.68
756.189	44.46
756.939	57.79
757.69	47.54
758.441	42.41
759.192	46.51
759.942	41.38
760.693	34.21
761.443	35.23
762.194	34.21
762.944	51.64
763.694	38.31
764.444	52.66
765.194	45.48
765.944	28.06
766.694	20.88
767.444	28.06
768.194	29.08
768.943	20.89
769.693	3.46
770.443	21.91
771.192	-8.84
771.941	17.81
772.691	10.63
773.44	2.43
774.189	16.78
774.938	9.61
775.687	7.56
776.436	-14.99
777.185	9.61
777.934	7.56
778.683	-1.67
779.431	7.56
780.18	-0.64
780.928	5.51
781.677	7.56
782.425	11.66
783.173	3.46
783.922	0.38
784.67	7.56
785.418	-0.64
786.166	8.58
786.914	20.89
787.661	7.56
788.409	-6.79
789.157	15.76
789.904	1.41
790.652	7.56
791.399	5.51
792.147	8.58
792.894	20.88
793.641	-2.69
794.388	350.19
795.136	-0.64
795.883	24.99
796.629	6.53
797.376	0.38
798.123	3.46
798.87	6.54
799.616	-18.07
800.363	-1.67
801.109	-11.91
801.856	-7.82
802.602	-11.92
803.349	8.58
804.095	-17.04
804.841	-12.94
805.587	2.43
806.333	-10.89
807.079	1.41
807.825	-3.72
808.57	-14.99
809.316	-0.64
810.062	-30.37
810.807	-7.82
811.553	-5.76
812.298	-12.94
813.043	-16.02
813.788	-6.79
814.534	5.51
815.279	-19.09
816.024	-16.02
816.769	-0.64
817.514	-3.72
818.258	-9.87
819.003	-13.96
819.748	-476.23
820.492	-7.82
821.237	-74.98
821.981	0.38
822.726	-21.14
823.47	-19.09
824.214	-19.09
824.958	-41.64
825.702	-23.19
826.446	-24.21
827.19	12.68
827.934	-21.14
828.678	-1.67
829.421	-9.86
830.165	-21.14
830.909	8.58
831.652	-34.47
832.395	-16.01
833.139	-13.96
833.882	-24.21
834.625	-3.72
835.368	-23.19
836.111	-1.67
836.854	-34.47
837.597	-21.14
838.34	-28.32
839.083	3.46
839.825	-14.99
840.568	0.38
841.311	-24.22
842.053	-10.89
842.795	-10.89
843.538	0.38
844.28	-9.87
845.022	-6.79
845.764	-27.29
846.506	-11.92
847.248	-34.47
847.99	-22.17
848.732	-11.92
849.474	-30.37
850.215	-20.12
850.957	-11.92
851.698	-8.84
852.44	-17.04
853.181	-7.82
853.922	-30.36
854.664	-4.74
855.405	-11.91
856.146	-16.02
856.887	0.38
857.628	-14.99
858.369	-22.17
859.109	-18.06
859.85	-24.22
860.591	-9.87
861.331	-14.99
862.072	-9.87
862.812	-21.15
863.553	-6.79
864.293	-17.04
865.033	-10.89
865.773	-16.02
866.513	-0.64
867.253	-24.22
867.993	-2.69
868.733	-21.14
869.473	-27.29
870.213	-35.49
870.952	-24.22
871.692	-21.14
872.431	-9.87
873.171	-8.84
873.91	-2.69
874.649	-20.12
875.388	-18.07
876.128	-23.19
876.867	-27.3
877.606	-23.19
878.345	-14.99
879.083	-17.04
879.822	-25.24
880.561	-17.04
881.299	-19.09
882.038	-14.99
882.777	-1.67
883.515	-18.06
884.253	17.6
884.992	-31.39
885.73	-16.02
886.468	-3.72
887.206	-17.04
887.944	-16.02
888.682	-27.29
889.42	-26.27
890.157	-21.14
890.895	0.38
891.633	-27.26
892.37	-20.12
893.108	-9.87
893.845	-21.14
894.583	-9.87
895.32	-0.64
896.057	-24.22
896.794	-5.77
897.531	-24.22
898.268	-28.32
899.005	-31.4
899.742	-16.02
900.479	-24.22
901.215	-25.24
901.952	-12.94
902.689	-17.04
903.425	-17.04
904.162	-13.97
904.898	-8.84
905.634	-11.92
906.37	-32.42
907.106	0.38
907.843	-21.14
908.579	-16.02
909.314	-17.04
910.05	-18.07
910.786	-4.74
911.522	-23.2
912.257	-47.79
912.993	-9.87
913.728	-19.09
914.464	-28.32
915.199	-13.97
915.935	-16.02
916.67	-31.39
917.405	-22.17
918.14	-19.09
918.875	-11.92
919.61	-9.87
920.345	-19.09
921.08	-40.61
921.814	-6.79
922.549	-10.89
923.284	-42.66
924.018	-33.45
924.752	-20.11
925.487	-21.14
926.221	-24.22
926.955	-17.04
927.69	-13.97
928.424	-17.04
929.158	-24.22
929.892	-3.72
930.625	-5.77
931.359	-7.82
932.093	-4.74
932.827	-21.14
933.56	-16.02
934.294	-22.17
935.027	-2.69
935.761	-24.22
936.494	-21.14
937.227	-21.14
937.96	-19.09
938.693	-24.22
939.426	-11.92
940.159	-32.41
940.892	-10.89
941.625	-19.09
942.358	-28.32
943.091	-23.19
943.823	-27.3
944.556	-20.12
945.288	5.51
946.021	-18.07
946.753	-23.19
947.485	-18.07
948.217	3.46
948.95	-35.49
949.682	-11.92
950.414	-31.4
951.146	-31.39
951.877	-19.09
952.609	11.66
953.341	-8.84
954.073	-28.31
954.804	-20.12
955.536	-23.19
956.267	-10.89
956.998	-5.77
957.73	-28.32
958.461	-19.09
959.192	-21.15
959.923	-18.06
960.654	-6.79
961.385	-0.64
962.116	-11.92
962.847	-10.89
963.578	-12.94
964.308	-23.19
965.039	-17.04
965.769	-22.17
966.5	-11.92
967.23	-10.89
967.961	-12.94
968.691	-29.34
969.421	-20.12
970.151	-29.34
970.881	-28.32
971.611	-36.52
972.341	-21.14
973.071	-27.29
973.801	-8.84
974.53	-10.89
975.26	-8.84
975.99	-38.57
976.719	-12.94
977.448	-0.64
978.178	-14.99
978.907	2.43
979.636	-20.12
980.365	-19.09
981.095	-12.94
981.824	-33.44
982.553	-11.92
983.281	-10.89
984.01	-3.72
984.739	5.52
985.468	2.44
986.196	-1.67
986.925	-16.01
987.653	-7.82
988.382	-7.82
989.11	-24.22
989.838	7.56
990.566	6.53
991.295	-13.97
992.023	-31.39
992.751	-22.16
993.478	-8.84
994.206	-12.94
994.934	-39.59
995.662	-3.72
996.389	-1.67
997.117	-4.74
997.845	7.57
