Data from Sample_Subt2_001.txt Node
Date: Tue Aug 27 12:40:57 EDT 2019
User: wcc
Spectrometer: QEPB0759
Trigger mode: 0
Integration Time (sec): 1.000000E0
Scans to average: 1
Electric dark correction enabled: true
Nonlinearity correction enabled: false
Boxcar width: 0
XAxis mode: Wavelengths
Number of Pixels in Spectrum: 1044
>>>>>Begin Spectral Data<<<<<
197.938	22.12
198.749	34.12
199.559	23.12
200.369	33.12
201.179	19.12
201.988	25.12
202.798	36.12
203.608	18.12
204.417	31.12
205.227	34.12
206.036	24.12
206.846	36.12
207.655	22.12
208.464	24.12
209.273	24.12
210.082	29.12
210.891	24.12
211.7	26.12
212.508	38.12
213.317	30.12
214.125	17.12
214.934	40.12
215.742	29.12
216.55	28.12
217.359	30.12
218.167	42.12
218.975	38.12
219.782	31.12
220.59	23.12
221.398	14.12
222.206	30.12
223.013	30.12
223.82	41.12
224.628	24.12
225.435	44.12
226.242	31.12
227.049	18.12
227.856	27.12
228.663	22.12
229.47	21.12
230.277	29.12
231.083	35.12
231.89	25.12
232.696	29.12
233.502	34.12
234.309	37.12
235.115	27.12
235.921	22.12
236.727	24.12
237.533	29.12
238.339	33.12
239.144	22.12
239.95	29.12
240.756	36.12
241.561	20.12
242.366	37.12
243.172	24.12
243.977	23.12
244.782	33.12
245.587	28.12
246.392	28.12
247.197	4.12
248.001	35.12
248.806	39.12
249.611	26.12
250.415	24.12
251.219	24.12
252.024	23.12
252.828	27.12
253.632	27.12
254.436	24.12
255.24	28.12
256.044	34.12
256.848	16.12
257.651	15.12
258.455	32.12
259.258	28.12
260.062	-311.88
260.865	16.12
261.668	28.12
262.471	15.12
263.274	18.12
264.077	21.12
264.88	26.12
265.683	22.12
266.486	16.12
267.288	23.12
268.091	37.12
268.893	28.12
269.696	27.12
270.498	21.12
271.3	15.12
272.102	17.12
272.904	20.12
273.706	23.12
274.508	9.12
275.309	36.12
276.111	24.12
276.913	25.12
277.714	37.12
278.515	24.12
279.317	29.12
280.118	35.12
280.919	15.12
281.72	19.12
282.521	30.12
283.322	28.12
284.122	29.12
284.923	13.12
285.724	25.12
286.524	29.12
287.325	31.12
288.125	22.12
288.925	34.12
289.725	7.12
290.525	30.12
291.325	19.12
292.125	4.12
292.925	23.12
293.724	37.12
294.524	16.12
295.324	27.12
296.123	22.12
296.922	30.12
297.722	26.12
298.521	29.12
299.32	26.12
300.119	27.12
300.918	21.12
301.716	16.12
302.515	23.12
303.314	24.12
304.112	31.12
304.911	25.12
305.709	25.12
306.507	31.12
307.306	22.12
308.104	31.12
308.902	26.12
309.7	31.12
310.498	26.12
311.295	27.12
312.093	27.12
312.891	21.12
313.688	30.12
314.485	18.12
315.283	19.12
316.08	29.12
316.877	22.12
317.674	19.12
318.471	27.12
319.268	21.12
320.065	14.12
320.862	23.12
321.658	29.12
322.455	30.12
323.251	15.12
324.047	30.12
324.844	13.12
325.64	13.12
326.436	25.12
327.232	24.12
328.028	25.12
328.824	30.12
329.62	29.12
330.415	24.12
331.211	14.12
332.006	20.12
332.802	31.12
333.597	31.12
334.392	28.12
335.187	27.12
335.982	39.12
336.777	20.12
337.572	36.12
338.367	25.12
339.162	21.12
339.956	19.12
340.751	21.12
341.545	26.12
342.34	17.12
343.134	29.12
343.928	21.12
344.722	29.12
345.516	23.12
346.31	22.12
347.104	37.12
347.898	29.12
348.691	23.12
349.485	19.12
350.278	34.12
351.072	29.12
351.865	182.12
352.658	27.12
353.452	14.12
354.245	27.12
355.038	13.12
355.83	26.12
356.623	36.12
357.416	31.12
358.209	31.12
359.001	27.12
359.794	32.12
360.586	44.12
361.378	36.12
362.17	2.12
362.963	16.12
363.755	36.12
364.546	20.12
365.338	16.12
366.13	27.12
366.922	25.12
367.713	29.12
368.505	36.12
369.296	22.12
370.088	31.12
370.879	34.12
371.67	32.12
372.461	25.12
373.252	31.12
374.043	37.12
374.834	32.12
375.625	57.12
376.415	42.12
377.206	52.12
377.996	66.12
378.787	77.12
379.577	85.12
380.367	96.12
381.157	119.12
381.947	146.12
382.737	147.12
383.527	178.12
384.317	216.12
385.107	241.12
385.896	259.12
386.686	315.12
387.475	359.12
388.265	420.12
389.054	455.12
389.843	512.12
390.632	586.12
391.421	624.12
392.21	710.12
392.999	766.12
393.788	841.12
394.576	923.12
395.365	997.12
396.154	1064.12
396.942	1162.12
397.73	1243.12
398.519	1323.12
399.307	1378.12
400.095	1458.12
400.883	1506.12
401.671	1607.12
402.459	1672.12
403.246	1784.12
404.034	1900.12
404.822	1955.12
405.609	2033.12
406.396	2103.12
407.184	2164.12
407.971	2219.12
408.758	2266.12
409.545	2305.12
410.332	2389.12
411.119	2467.12
411.906	2558.12
412.693	2683.12
413.479	2809.12
414.266	2974.12
415.052	3103.12
415.839	3284.12
416.625	3441.12
417.411	3610.12
418.197	3808.12
418.983	3914.12
419.769	3969.12
420.555	3930.12
421.341	3858.12
422.127	3808.12
422.912	3832.12
423.698	3799.12
424.483	3812.12
425.269	3900.12
426.054	3960.12
426.839	4097.12
427.624	4214.12
428.409	4393.12
429.194	4623.12
429.979	4796.12
430.764	5016.12
431.549	5202.12
432.333	5368.12
433.118	5512.12
433.902	5726.12
434.687	5834.12
435.471	5983.12
436.255	6126.12
437.039	6314.12
437.823	6477.12
438.607	6593.12
439.391	6661.12
440.175	6760.12
440.958	6951.12
441.742	7120.12
442.526	7257.12
443.309	7439.12
444.092	7640.12
444.876	7824.12
445.659	8007.12
446.442	8186.12
447.225	8400.12
448.008	8847.12
448.791	9687.12
449.573	10424.12
450.356	10501.12
451.139	10363.12
451.921	10488.12
452.704	10384.12
453.486	10265.12
454.268	10463.12
455.05	10689.12
455.833	11007.12
456.615	11335.12
457.396	11559.12
458.178	11648.12
458.96	11602.12
459.742	11563.12
460.523	11662.12
461.305	11903.12
462.086	12139.12
462.868	12173.12
463.649	11920.12
464.43	11729.12
465.211	11803.12
465.992	12284.12
466.773	13081.12
467.554	13493.12
468.335	13328.12
469.115	12794.12
469.896	12081.12
470.676	11556.12
471.457	11352.12
472.237	11975.12
473.018	12084.12
473.798	11080.12
474.578	9989.12
475.358	9407.12
476.138	9073.12
476.918	8701.12
477.697	8480.12
478.477	8306.12
479.257	8315.12
480.036	8371.12
480.816	8385.12
481.595	8171.12
482.374	7829.12
483.153	7457.12
483.932	6986.12
484.711	6563.12
485.49	6241.12
486.269	5951.12
487.048	5723.12
487.827	5528.12
488.605	5339.12
489.384	5167.12
490.162	5136.12
490.941	5157.12
491.719	5166.12
492.497	4943.12
493.275	4609.12
494.053	4283.12
494.831	4010.12
495.609	3753.12
496.387	3533.12
497.164	3365.12
497.942	3146.12
498.72	2947.12
499.497	2772.12
500.274	2589.12
501.052	2429.12
501.829	2262.12
502.606	2102.12
503.383	1922.12
504.16	1741.12
504.937	1567.12
505.714	1417.12
506.49	1272.12
507.267	1094.12
508.043	959.12
508.82	842.12
509.596	724.12
510.373	636.12
511.149	556.12
511.925	457.12
512.701	382.12
513.477	339.12
514.253	284.12
515.029	253.12
515.804	197.12
516.58	180.12
517.356	154.12
518.131	132.12
518.906	113.12
519.682	103.12
520.457	94.12
521.232	76.12
522.007	94.12
522.782	74.12
523.557	72.12
524.332	71.12
525.107	62.12
525.881	61.12
526.656	72.12
527.43	59.12
528.205	60.12
528.979	70.12
529.753	58.12
530.527	69.12
531.302	50.12
532.076	52.12
532.849	47.12
533.623	57.12
534.397	51.12
535.171	60.12
535.944	69.12
536.718	52.12
537.491	51.12
538.265	55.12
539.038	56.12
539.811	47.12
540.584	40.12
541.357	50.12
542.13	63.12
542.903	52.12
543.676	59.12
544.449	44.12
545.221	39.12
545.994	39.12
546.766	48.12
547.539	43.12
548.311	55.12
549.083	48.12
549.855	41.12
550.627	54.12
551.399	53.12
552.171	47.12
552.943	55.12
553.715	53.12
554.486	57.12
555.258	37.12
556.029	50.12
556.801	45.12
557.572	54.12
558.343	55.12
559.114	44.12
559.886	47.12
560.657	50.12
561.427	48.12
562.198	56.12
562.969	57.12
563.74	61.12
564.51	47.12
565.281	50.12
566.051	57.12
566.822	47.12
567.592	48.12
568.362	55.12
569.132	66.12
569.902	61.12
570.672	55.12
571.442	62.12
572.212	59.12
572.982	63.12
573.751	55.12
574.521	71.12
575.29	59.12
576.06	56.12
576.829	51.12
577.598	61.12
578.367	48.12
579.136	55.12
579.905	59.12
580.674	65.12
581.443	69.12
582.212	63.12
582.981	69.12
583.749	51.12
584.518	75.12
585.286	70.12
586.054	84.12
586.823	96.12
587.591	83.12
588.359	103.12
589.127	120.12
589.895	137.12
590.663	161.12
591.431	221.12
592.198	308.12
592.966	417.12
593.734	559.12
594.501	796.12
595.268	1082.12
596.036	1461.12
596.803	1939.12
597.57	2512.12
598.337	3257.12
599.104	4085.12
599.871	5048.12
600.638	6104.12
601.405	7224.12
602.171	8502.12
602.938	9811.12
603.704	11163.12
604.471	12509.12
605.237	13913.12
606.004	15222.12
606.77	16575.12
607.536	17926.12
608.302	19147.12
609.068	20397.12
609.834	21512.12
610.599	22599.12
611.365	23634.12
612.131	24658.12
612.896	25509.12
613.662	26345.12
614.427	26994.12
615.193	27801.12
615.958	28351.12
616.723	28874.12
617.488	29353.12
618.253	29703.12
619.018	30160.12
619.783	30378.12
620.548	30644.12
621.312	30821.12
622.077	31104.12
622.842	31159.12
623.606	31184.12
624.37	31251.12
625.135	31281.12
625.899	31142.12
626.663	31068.12
627.427	30963.12
628.191	30797.12
628.955	30692.12
629.719	30573.12
630.483	30391.12
631.246	30262.12
632.01	29909.12
632.773	29760.12
633.537	29476.12
634.3	29199.12
635.063	28904.12
635.827	28609.12
636.59	28317.12
637.353	28055.12
638.116	27674.12
638.879	27447.12
639.641	27128.12
640.404	26931.12
641.167	26691.12
641.929	26425.12
642.692	26179.12
643.454	25957.12
644.216	25783.12
644.979	25614.12
645.741	25397.12
646.503	25276.12
647.265	25253.12
648.027	25104.12
648.789	24960.12
649.551	24812.12
650.312	24423.12
651.074	23965.12
651.835	23625.12
652.597	23347.12
653.358	23117.12
654.12	22932.12
654.881	22764.12
655.642	22614.12
656.403	22509.12
657.164	22420.12
657.925	22395.12
658.686	22349.12
659.447	22372.12
660.207	22424.12
660.968	22435.12
661.728	22452.12
662.489	22598.12
663.249	22659.12
664.01	22802.12
664.77	22949.12
665.53	22986.12
666.29	23097.12
667.05	23214.12
667.81	23237.12
668.57	23290.12
669.329	23330.12
670.089	23477.12
670.849	23501.12
671.608	23631.12
672.368	23596.12
673.127	23593.12
673.886	23554.12
674.646	23483.12
675.405	23505.12
676.164	23386.12
676.923	23258.12
677.682	23141.12
678.44	22988.12
679.199	22940.12
679.958	22967.12
680.717	22982.12
681.475	23398.12
682.233	23936.12
682.992	24054.12
683.75	23605.12
684.508	23035.12
685.266	22455.12
686.024	22040.12
686.782	21727.12
687.54	21589.12
688.298	21302.12
689.056	20959.12
689.814	20589.12
690.571	20198.12
691.329	19760.12
692.086	19442.12
692.843	19102.12
693.601	18705.12
694.358	18325.12
695.115	17993.12
695.872	17739.12
696.629	17434.12
697.386	17191.12
698.143	16930.12
698.9	16699.12
699.656	16529.12
700.413	16366.12
701.169	16238.12
701.926	16158.12
702.682	16056.12
703.438	15938.12
704.195	15793.12
704.951	15634.12
705.707	15575.12
706.463	15521.12
707.219	15469.12
707.974	15394.12
708.73	15442.12
709.486	15370.12
710.241	15352.12
710.997	15266.12
711.752	15159.12
712.508	15006.12
713.263	14630.12
714.018	14322.12
714.773	13934.12
715.528	13473.12
716.283	13054.12
717.038	12631.12
717.793	12203.12
718.548	11789.12
719.303	11278.12
720.057	10836.12
720.812	10392.12
721.566	10032.12
722.321	9745.12
723.075	9441.12
723.829	9205.12
724.583	8973.12
725.337	8872.12
726.091	8661.12
726.845	8603.12
727.599	8519.12
728.353	8464.12
729.106	8318.12
729.86	8199.12
730.614	8249.12
731.367	8424.12
732.12	8442.12
732.874	8349.12
733.627	8010.12
734.38	7655.12
735.133	7300.12
735.886	6961.12
736.639	6747.12
737.392	6594.12
738.145	6525.12
738.897	6424.12
739.65	6324.12
740.403	6235.12
741.155	6087.12
741.907	5836.12
742.66	5422.12
743.412	4875.12
744.164	4295.12
744.916	3546.12
745.668	2693.12
746.42	1849.12
747.172	1105.12
747.924	596.12
748.676	309.12
749.427	203.12
750.179	159.12
750.93	128.12
751.682	115.12
752.433	110.12
753.184	103.12
753.935	105.12
754.687	82.12
755.438	85.12
756.189	78.12
756.939	81.12
757.69	78.12
758.441	86.12
759.192	73.12
759.942	71.12
760.693	79.12
761.443	86.12
762.194	84.12
762.944	69.12
763.694	81.12
764.444	69.12
765.194	83.12
765.944	70.12
766.694	64.12
767.444	60.12
768.194	53.12
768.943	53.12
769.693	52.12
770.443	59.12
771.192	50.12
771.941	49.12
772.691	51.12
773.44	46.12
774.189	54.12
774.938	46.12
775.687	52.12
776.436	48.12
777.185	47.12
777.934	43.12
778.683	46.12
779.431	49.12
780.18	54.12
780.928	34.12
781.677	37.12
782.425	46.12
783.173	47.12
783.922	47.12
784.67	44.12
785.418	46.12
786.166	59.12
786.914	42.12
787.661	39.12
788.409	54.12
789.157	50.12
789.904	37.12
790.652	39.12
791.399	36.12
792.147	43.12
792.894	44.12
793.641	34.12
794.388	-9.88
795.136	32.12
795.883	36.12
796.629	21.12
797.376	32.12
798.123	32.12
798.87	37.12
799.616	35.12
800.363	38.12
801.109	29.12
801.856	38.12
802.602	19.12
803.349	34.12
804.095	39.12
804.841	31.12
805.587	30.12
806.333	38.12
807.079	38.12
807.825	29.12
808.57	30.12
809.316	30.12
810.062	26.12
810.807	27.12
811.553	34.12
812.298	30.12
813.043	41.12
813.788	29.12
814.534	28.12
815.279	21.12
816.024	26.12
816.769	35.12
817.514	32.12
818.258	32.12
819.003	29.12
819.748	228.12
820.492	32.12
821.237	92.12
821.981	16.12
822.726	37.12
823.47	25.12
824.214	27.12
824.958	31.12
825.702	31.12
826.446	26.12
827.19	23.12
827.934	12.12
828.678	21.12
829.421	15.12
830.165	19.12
830.909	18.12
831.652	13.12
832.395	26.12
833.139	26.12
833.882	43.12
834.625	15.12
835.368	18.12
836.111	19.12
836.854	26.12
837.597	24.12
838.34	21.12
839.083	25.12
839.825	22.12
840.568	17.12
841.311	24.12
842.053	28.12
842.795	24.12
843.538	26.12
844.28	32.12
845.022	16.12
845.764	18.12
846.506	14.12
847.248	23.12
847.99	8.12
848.732	26.12
849.474	24.12
850.215	28.12
850.957	34.12
851.698	20.12
852.44	28.12
853.181	29.12
853.922	25.12
854.664	31.12
855.405	25.12
856.146	31.12
856.887	33.12
857.628	26.12
858.369	12.12
859.109	14.12
859.85	19.12
860.591	17.12
861.331	40.12
862.072	28.12
862.812	5.12
863.553	26.12
864.293	27.12
865.033	14.12
865.773	21.12
866.513	22.12
867.253	27.12
867.993	19.12
868.733	14.12
869.473	7.12
870.213	21.12
870.952	26.12
871.692	23.12
872.431	18.12
873.171	29.12
873.91	12.12
874.649	21.12
875.388	36.12
876.128	24.12
876.867	14.12
877.606	28.12
878.345	26.12
879.083	21.12
879.822	17.12
880.561	23.12
881.299	31.12
882.038	19.12
882.777	27.12
883.515	17.12
884.253	237.12
884.992	22.12
885.73	21.12
886.468	26.12
887.206	26.12
887.944	50.12
888.682	24.12
889.42	32.12
890.157	19.12
890.895	24.12
891.633	19.12
892.37	23.12
893.108	28.12
893.845	25.12
894.583	11.12
895.32	38.12
896.057	21.12
896.794	28.12
897.531	23.12
898.268	20.12
899.005	27.12
899.742	32.12
900.479	15.12
901.215	7.12
901.952	29.12
902.689	22.12
903.425	23.12
904.162	16.12
904.898	21.12
905.634	6.12
906.37	24.12
907.106	17.12
907.843	24.12
908.579	21.12
909.314	17.12
910.05	22.12
910.786	30.12
911.522	12.12
912.257	19.12
912.993	10.12
913.728	7.12
914.464	24.12
915.199	21.12
915.935	36.12
916.67	20.12
917.405	16.12
918.14	18.12
918.875	31.12
919.61	34.12
920.345	35.12
921.08	29.12
921.814	28.12
922.549	8.12
923.284	18.12
924.018	11.12
924.752	19.12
925.487	18.12
926.221	17.12
926.955	20.12
927.69	8.12
928.424	21.12
929.158	24.12
929.892	9.12
930.625	27.12
931.359	26.12
932.093	13.12
932.827	30.12
933.56	20.12
934.294	14.12
935.027	16.12
935.761	27.12
936.494	20.12
937.227	15.12
937.96	26.12
938.693	33.12
939.426	30.12
940.159	12.12
940.892	22.12
941.625	13.12
942.358	15.12
943.091	25.12
943.823	25.12
944.556	16.12
945.288	21.12
946.021	18.12
946.753	20.12
947.485	20.12
948.217	21.12
948.95	20.12
949.682	7.12
950.414	29.12
951.146	14.12
951.877	24.12
952.609	27.12
953.341	6.12
954.073	25.12
954.804	15.12
955.536	29.12
956.267	18.12
956.998	8.12
957.73	16.12
958.461	23.12
959.192	26.12
959.923	24.12
960.654	35.12
961.385	2.12
962.116	24.12
962.847	28.12
963.578	20.12
964.308	30.12
965.039	24.12
965.769	17.12
966.5	15.12
967.23	11.12
967.961	6.12
968.691	28.12
969.421	23.12
970.151	13.12
970.881	14.12
971.611	19.12
972.341	16.12
973.071	14.12
973.801	34.12
974.53	20.12
975.26	19.12
975.99	13.12
976.719	18.12
977.448	19.12
978.178	22.12
978.907	21.12
979.636	16.12
980.365	18.12
981.095	21.12
981.824	27.12
982.553	23.12
983.281	10.12
984.01	-3.88
984.739	6.12
985.468	5.12
986.196	-5.88
986.925	45.12
987.653	25.12
988.382	19.12
989.11	21.12
989.838	22.12
990.566	17.12
991.295	14.12
992.023	20.12
992.751	22.12
993.478	14.12
994.206	24.12
994.934	11.12
995.662	-1.88
996.389	1.12
997.117	2.12
997.845	-2.88
