Data from SampleKW32_Subt2_008.txt Node
Date: Fri Aug 23 09:22:29 EDT 2019
User: wcc
Spectrometer: QEPB0759
Trigger mode: 0
Integration Time (sec): 1.000000E0
Scans to average: 1
Electric dark correction enabled: true
Nonlinearity correction enabled: true
Boxcar width: 0
XAxis mode: Wavelengths
Number of Pixels in Spectrum: 1044
>>>>>Begin Spectral Data<<<<<
197.938	6.92
198.749	-1.28
199.559	1.79
200.369	0.77
201.179	3.84
201.988	-14.61
202.798	-1.28
203.608	-23.83
204.417	-9.48
205.227	1.79
206.036	-0.26
206.846	-18.71
207.655	-14.61
208.464	-9.48
209.273	6.92
210.082	-5.38
210.891	-5.38
211.7	-6.41
212.508	-14.61
213.317	12.05
214.125	5.89
214.934	3.84
215.742	-8.46
216.55	-11.53
217.359	-1.28
218.167	-9.48
218.975	-9.48
219.782	-4.36
220.59	3.84
221.398	-2.31
222.206	6.92
223.013	-2.31
223.82	-8.46
224.628	-3.33
225.435	11.02
226.242	-7.43
227.049	-16.66
227.856	21.27
228.663	1.79
229.47	1.79
230.277	8.97
231.083	-12.56
231.89	-8.46
232.696	-4.36
233.502	2.82
234.309	-3.33
235.115	6.92
235.921	-3.33
236.727	-1.28
237.533	-31.01
238.339	-25.88
239.144	-2.31
239.95	-3.33
240.756	-2.31
241.561	-21.78
242.366	-23.83
243.172	-14.61
243.977	5.89
244.782	-13.58
245.587	0.77
246.392	3.84
247.197	-6.41
248.001	-2.31
248.806	3.84
249.611	-9.48
250.415	-2.31
251.219	-0.26
252.024	-0.26
252.828	7.94
253.632	1.79
254.436	4.87
255.24	-8.46
256.044	0.77
256.848	-0.26
257.651	-21.78
258.455	-19.73
259.258	-3.33
260.062	24.66
260.865	-18.71
261.668	6.92
262.471	-21.78
263.274	-32.03
264.077	-9.48
264.88	-9.48
265.683	-10.51
266.486	-8.46
267.288	6.92
268.091	15.12
268.893	-31.01
269.696	-0.26
270.498	-8.46
271.3	-22.81
272.102	-5.38
272.904	-27.93
273.706	-6.41
274.508	-4.36
275.309	-27.93
276.111	-10.51
276.913	4.87
277.714	-16.66
278.515	-19.73
279.317	4.87
280.118	-3.33
280.919	-6.41
281.72	-3.33
282.521	-26.91
283.322	-5.38
284.122	-1.28
284.923	-19.73
285.724	-1.28
286.524	-7.43
287.325	-15.63
288.125	-26.91
288.925	-8.46
289.725	-22.81
290.525	-20.76
291.325	-4.36
292.125	-13.58
292.925	-12.56
293.724	-6.41
294.524	-16.66
295.324	-2.31
296.123	-25.88
296.922	-4.36
297.722	-6.4
298.521	-10.51
299.32	-3.33
300.119	-6.41
300.918	-27.93
301.716	-8.46
302.515	-21.78
303.314	-7.43
304.112	-19.73
304.911	-17.68
305.709	-15.63
306.507	-12.56
307.306	-32.03
308.104	-1.28
308.902	-21.78
309.7	-17.68
310.498	-18.71
311.295	-21.79
312.093	-27.93
312.891	-21.78
313.688	9.99
314.485	0.77
315.283	12.04
316.08	-3.33
316.877	-9.48
317.674	-9.48
318.471	-27.94
319.268	-6.41
320.065	-3.33
320.862	-19.73
321.658	-2.31
322.455	8.97
323.251	-10.51
324.047	-10.51
324.844	-7.43
325.64	-3.33
326.436	-2.31
327.232	-15.63
328.028	-15.63
328.824	-5.38
329.62	-11.53
330.415	-18.7
331.211	-6.41
332.006	-12.56
332.802	-22.81
333.597	-16.66
334.392	-15.63
335.187	-8.46
335.982	6.92
336.777	-8.46
337.572	-15.63
338.367	-13.58
339.162	-12.56
339.956	9.99
340.751	-11.53
341.545	-10.51
342.34	-7.43
343.134	-2.31
343.928	-9.48
344.722	1.79
345.516	-2.31
346.31	-26.91
347.104	-19.73
347.898	-9.48
348.691	-18.71
349.485	5.89
350.278	-7.43
351.072	-11.53
351.865	-12.41
352.658	2.82
353.452	-22.81
354.245	-6.41
355.038	-21.78
355.83	-6.41
356.623	-8.46
357.416	-6.41
358.209	17.17
359.001	-13.58
359.794	-3.33
360.586	-16.66
361.378	-3.33
362.17	-8.46
362.963	-9.48
363.755	-10.51
364.546	-19.73
365.338	-6.41
366.13	1.79
366.922	-4.36
367.713	-12.56
368.505	-11.53
369.296	-9.48
370.088	10
370.879	-19.73
371.67	-5.38
372.461	10
373.252	4.87
374.043	6.92
374.834	-2.31
375.625	23.32
376.415	7.94
377.206	20.24
377.996	32.55
378.787	46.89
379.577	68.42
380.367	80.73
381.157	103.26
381.947	143.24
382.737	156.56
383.527	186.26
384.317	219.04
385.107	254.94
385.896	297.91
386.686	347.11
387.475	388.06
388.265	448.54
389.054	507.73
389.843	579.61
390.632	646.12
391.421	726.97
392.21	799.63
392.999	889.79
393.788	975.66
394.576	1088.12
395.365	1142.31
396.154	1265.12
396.942	1343.88
397.73	1441.89
398.519	1566.56
399.307	1631.91
400.095	1720.73
400.883	1832.84
401.671	1912.77
402.459	2031.14
403.246	2137.41
404.034	2255.73
404.822	2378.06
405.609	2485.88
406.396	2602
407.184	2654.61
407.971	2741.79
408.758	2828.41
409.545	2906.66
410.332	2961.74
411.119	3043.33
411.906	3159.89
412.693	3227.57
413.479	3389.32
414.266	3546.38
415.052	3750.36
415.839	4015.9
416.625	4190.73
417.411	4442.45
418.197	4695.56
418.983	4921.3
419.769	5047.66
420.555	5014.52
421.341	4987.25
422.127	4916.11
422.912	4922.35
423.698	4871.91
424.483	4858.43
425.269	4896.14
426.054	5004.07
426.839	5117.69
427.624	5282.47
428.409	5491.94
429.194	5699.51
429.979	5981.7
430.764	6275.98
431.549	6522.86
432.333	6800.71
433.118	7025.88
433.902	7286.78
434.687	7453.75
435.471	7639.89
436.255	7881.26
437.039	8114.96
437.823	8356.25
438.607	8561.1
439.391	8599.68
440.175	8733.87
440.958	8944.83
441.742	9131.8
442.526	9283.7
443.309	9525.74
444.092	9748.17
444.876	9954.19
445.659	10176.63
446.442	10397.31
447.225	10658.79
448.008	11100.93
448.791	11994.96
449.573	13241.53
450.356	13408.07
451.139	12994.79
451.921	13299.03
452.704	13187.69
453.486	12919.98
454.268	13132.03
455.05	13492.4
455.833	13918.88
456.615	14436.32
457.396	14839.69
458.178	15007.81
458.96	14983.86
459.742	14912.77
460.523	15074.76
461.305	15441.15
462.086	15820.31
462.868	15927.93
463.649	15737.88
464.43	15402.06
465.211	15354.32
465.992	15943.53
466.773	17019.75
467.554	17779.1
468.335	17614.15
469.115	16841.22
469.896	16026.91
470.676	15283.38
471.457	14948
472.237	15631.58
473.018	16276.34
473.798	14986.8
474.578	13487.89
475.358	12692.69
476.138	12218.89
476.918	11774.68
477.697	11534.24
478.477	11283.57
479.257	11261.7
480.036	11425.07
480.816	11430.48
481.595	11209.99
482.374	10712.97
483.153	10229.77
483.932	9633.27
484.711	9059.02
485.49	8515.03
486.269	8114.68
487.048	7751.94
487.827	7544.06
488.605	7265.2
489.384	7055.39
490.162	6965.93
490.941	7027.81
491.719	7074.67
492.497	6788.47
493.275	6334.8
494.053	5895.36
494.831	5502.21
495.609	5179.66
496.387	4887.34
497.164	4577.1
497.942	4344.81
498.72	4092.15
499.497	3805.49
500.274	3584.44
501.052	3323.48
501.829	3115.61
502.606	2879.68
503.383	2614.49
504.16	2394.32
504.937	2126.99
505.714	1907.85
506.49	1703.28
507.267	1500.35
508.043	1282.41
508.82	1107.42
509.596	981.93
510.373	827.32
511.149	698.42
511.925	589.83
512.701	509.97
513.477	426.95
514.253	351.21
515.029	282.58
515.804	217.01
516.58	180.1
517.356	170.9
518.131	140.14
518.906	136.07
519.682	111.46
520.457	79.69
521.232	95.07
522.007	55.09
522.782	47.92
523.557	78.68
524.332	48.95
525.107	48.94
525.881	40.75
526.656	45.88
527.43	29.47
528.205	16.14
528.979	27.42
529.753	33.57
530.527	37.67
531.302	21.27
532.076	8.97
532.849	36.65
533.623	9.99
534.397	20.25
535.171	37.67
535.944	21.27
536.718	-0.26
537.491	18.19
538.265	11.02
539.038	6.92
539.811	13.07
540.584	-3.33
541.357	-19.73
542.13	-29.98
542.903	-27.93
543.676	-17.68
544.449	-23.83
545.221	-28.95
545.994	-5.38
546.766	-6.41
547.539	-4.36
548.311	-20.76
549.083	5.89
549.855	4.87
550.627	-6.41
551.399	-7.43
552.171	2.82
552.943	13.07
553.715	15.12
554.486	18.19
555.258	29.47
556.029	18.2
556.801	40.74
557.572	17.17
558.343	22.3
559.114	18.19
559.886	18.19
560.657	26.4
561.427	27.42
562.198	20.25
562.969	19.22
563.74	31.52
564.51	12.04
565.281	13.07
566.051	41.77
566.822	36.65
567.592	32.55
568.362	31.52
569.132	22.3
569.902	26.39
570.672	42.8
571.442	14.09
572.212	24.34
572.982	32.55
573.751	14.09
574.521	28.45
575.29	34.59
576.06	8.97
576.829	25.37
577.598	17.17
578.367	26.4
579.136	35.62
579.905	43.82
580.674	25.37
581.443	-2.31
582.212	14.09
582.981	40.74
583.749	34.6
584.518	37.67
585.286	50.99
586.054	52.01
586.823	48.94
587.591	66.37
588.359	78.66
589.127	106.33
589.895	137.06
590.663	184.19
591.431	236.45
592.198	347.08
592.966	499.67
593.734	684.91
594.501	976.66
595.268	1407.14
596.036	1882.82
596.803	2547.41
597.57	3291.89
598.337	4244.47
599.104	5302.28
599.871	6543.5
600.638	7939.46
601.405	9459.52
602.171	11029.78
602.938	12661.11
603.704	14354.26
604.471	16129.98
605.237	17880.71
606.004	19538.45
606.77	21242.42
607.536	22892.16
608.302	24442.34
609.068	25898.74
609.834	27343.76
610.599	28644.97
611.365	29978.48
612.131	31279.08
612.896	32376.71
613.662	33375.57
614.427	34232.68
615.193	35039.44
615.958	35808.47
616.723	36363.88
617.488	36889.69
618.253	37350.09
619.018	37795.99
619.783	38102.63
620.548	38405.59
621.312	38579.6
622.077	38854
622.842	39020.34
623.606	39019.39
624.37	39125.03
625.135	39208.4
625.899	39097.98
626.663	38944.15
627.427	38786.41
628.191	38677.55
628.955	38465.8
629.719	38486.95
630.483	38258.06
631.246	37928.46
632.01	37630.48
632.773	37376.25
633.537	36987.88
634.3	36672.97
635.063	36259.79
635.827	35905.23
636.59	35482.4
637.353	35178.62
638.116	34781.3
638.879	34526.91
639.641	34028.91
640.404	33787.16
641.167	33425.1
641.929	32974.11
642.692	32568.18
643.454	32319.34
644.216	32045.03
644.979	31798.88
645.741	31528.7
646.503	31334.66
647.265	31151.6
648.027	30955.26
648.789	30735.13
649.551	30428.13
650.312	29949.75
651.074	29370.42
651.835	28849.52
652.597	28422.55
653.358	28186.33
654.12	27821.09
654.881	27577.82
655.642	27340.26
656.403	27149.31
657.164	26984.8
657.925	26830
658.686	26801.39
659.447	26785.23
660.207	26783.49
660.968	26708.19
661.728	26710.33
662.489	26798.95
663.249	26870.16
664.01	26825.36
664.77	26926.64
665.53	27113.26
666.29	27150.89
667.05	27174.96
667.81	27229.06
668.57	27276.43
669.329	27327.33
670.089	27402.67
670.849	27424.79
671.608	27472.69
672.368	27579.35
673.127	27397.93
673.886	27417.98
674.646	27373.5
675.405	27271.04
676.164	27101.65
676.923	27015.92
677.682	26887.93
678.44	26733.4
679.199	26589.76
679.958	26518.53
680.717	26673.97
681.475	27074.94
682.233	27635.54
682.992	27705.75
683.75	27145.95
684.508	26298.25
685.266	25767.09
686.024	25261.21
686.782	24922.71
687.54	24636.98
688.298	24258.18
689.056	23833.7
689.814	23393.65
690.571	22902.31
691.329	22429.6
692.086	21781.32
692.843	21443.14
693.601	21035.03
694.358	20506.41
695.115	20060.77
695.872	19694.19
696.629	19379.37
697.386	19048.82
698.143	18754.98
698.9	18519.36
699.656	18292.29
700.413	18132.08
701.169	17942.49
701.926	17774.71
702.682	17619.92
703.438	17472.06
704.195	17290.73
704.951	17119.7
705.707	17037.55
706.463	17010.82
707.219	16918.16
707.974	16844.29
708.73	16837.25
709.486	16821.35
710.241	16701.16
710.997	16623.86
711.752	16463.2
712.508	16236.06
713.263	15937.04
714.018	15506.66
714.773	15059.88
715.528	14639.51
716.283	14146.17
717.038	13684.71
717.793	13226.31
718.548	12700.45
719.303	12161.6
720.057	11640.82
720.812	11215.41
721.566	10801.51
722.321	10404.44
723.075	10118.59
723.829	9791.81
724.583	9597.03
725.337	9423.78
726.091	9208.32
726.845	9057.96
727.599	8982.89
728.353	8849.78
729.106	8668.56
729.86	8599.04
730.614	8574.68
731.367	8484.64
732.12	8693.05
732.874	8522.33
733.627	8157.7
734.38	7732.12
735.133	7329.86
735.886	6981.95
736.639	6739.29
737.392	6567.3
738.145	6506.43
738.897	6369.62
739.65	6278.33
740.403	6153.59
741.155	5978.39
741.907	5690.13
742.66	5252.82
743.412	4713.95
744.164	4077.65
744.916	3364.71
745.668	2500.35
746.42	1651.04
747.172	965.43
747.924	487.43
748.676	259.05
749.427	167.83
750.179	111.46
750.93	110.43
751.682	99.18
752.433	71.49
753.184	56.11
753.935	67.4
754.687	49.97
755.438	57.14
756.189	45.87
756.939	34.6
757.69	55.1
758.441	65.34
759.192	40.75
759.942	52.02
760.693	26.39
761.443	39.72
762.194	36.65
762.944	45.87
763.694	35.62
764.444	46.9
765.194	42.79
765.944	33.57
766.694	13.07
767.444	25.37
768.194	27.42
768.943	23.32
769.693	5.89
770.443	18.19
771.192	-1.28
771.941	13.07
772.691	-0.26
773.44	12.04
774.189	23.32
774.938	3.84
775.687	5.89
776.436	-2.31
777.185	-1.28
777.934	17.17
778.683	19.22
779.431	8.97
780.18	0.77
780.928	27.42
781.677	14.09
782.425	12.04
783.173	-3.33
783.922	-1.28
784.67	22.29
785.418	2.82
786.166	15.12
786.914	29.47
787.661	-4.36
788.409	0.77
789.157	5.89
789.904	-3.33
790.652	17.17
791.399	-5.38
792.147	8.97
792.894	9.99
793.641	6.92
794.388	362.77
795.136	16.14
795.883	22.3
796.629	14.09
797.376	-17.68
798.123	12.05
798.87	-11.53
799.616	-19.73
800.363	-2.31
801.109	2.82
801.856	-7.43
802.602	3.84
803.349	-2.31
804.095	-3.33
804.841	-18.71
805.587	-11.53
806.333	-13.58
807.079	-1.28
807.825	-3.33
808.57	-12.56
809.316	-0.26
810.062	-25.88
810.807	-7.43
811.553	-12.55
812.298	-9.48
813.043	0.77
813.788	-10.51
814.534	0.77
815.279	-13.58
816.024	-6.41
816.769	-7.43
817.514	-9.48
818.258	-15.63
819.003	-6.41
819.748	-383.52
820.492	-3.33
821.237	-80.71
821.981	-6.41
822.726	-8.46
823.47	-13.58
824.214	-2.31
824.958	-32.03
825.702	-36.13
826.446	-16.66
827.19	2.82
827.934	-21.78
828.678	-13.58
829.421	-8.46
830.165	-19.73
830.909	-7.43
831.652	-12.56
832.395	-11.53
833.139	-5.38
833.882	-23.83
834.625	-5.38
835.368	-16.66
836.111	-12.56
836.854	-37.16
837.597	-15.63
838.34	-11.53
839.083	-1.28
839.825	-20.76
840.568	-9.48
841.311	-18.71
842.053	-12.56
842.795	-2.31
843.538	-0.26
844.28	-7.43
845.022	-11.53
845.764	-19.73
846.506	-14.61
847.248	-23.83
847.99	-18.71
848.732	-3.33
849.474	-17.68
850.215	-26.91
850.957	-20.76
851.698	-21.78
852.44	-2.31
853.181	-0.26
853.922	-10.51
854.664	0.77
855.405	-24.85
856.146	-5.38
856.887	-14.61
857.628	-29.98
858.369	-1.28
859.109	-28.95
859.85	-16.66
860.591	-8.46
861.331	-18.71
862.072	-5.38
862.812	-16.66
863.553	-6.41
864.293	-19.73
865.033	-29.98
865.773	-4.36
866.513	-8.46
867.253	-5.38
867.993	-13.58
868.733	-28.96
869.473	-26.91
870.213	-36.13
870.952	-16.66
871.692	-23.83
872.431	-9.48
873.171	-7.43
873.91	-10.51
874.649	-5.38
875.388	-10.51
876.128	-18.71
876.867	-27.94
877.606	-28.96
878.345	-14.61
879.083	-12.56
879.822	-26.91
880.561	-9.48
881.299	-20.76
882.038	-18.71
882.777	-3.33
883.515	-19.73
884.253	10.89
884.992	-19.73
885.73	-26.91
886.468	5.89
887.206	-10.5
887.944	-23.83
888.682	-10.51
889.42	-29.98
890.157	-22.81
890.895	-12.56
891.633	-29.95
892.37	-32.03
893.108	-24.86
893.845	-22.81
894.583	-8.46
895.32	-0.26
896.057	-14.61
896.794	-7.43
897.531	-37.16
898.268	-40.24
899.005	-26.91
899.742	-7.43
900.479	-28.96
901.215	-14.61
901.952	-14.61
902.689	-14.61
903.425	-1.28
904.162	-9.48
904.898	-14.61
905.634	-17.68
906.37	-14.61
907.106	-8.46
907.843	-9.48
908.579	-17.68
909.314	-13.58
910.05	-21.78
910.786	-23.83
911.522	-29.99
912.257	-42.28
912.993	-5.38
913.728	-0.26
914.464	-20.76
915.199	-8.46
915.935	-8.46
916.67	-17.68
917.405	-28.96
918.14	-10.51
918.875	-18.71
919.61	-23.83
920.345	-14.61
921.08	-42.28
921.814	-14.61
922.549	-1.28
923.284	-23.83
924.018	-15.63
924.752	-26.9
925.487	-20.76
926.221	-9.48
926.955	-13.58
927.69	-8.46
928.424	-17.68
929.158	-17.68
929.892	-19.73
930.625	-7.43
931.359	-7.43
932.093	-3.33
932.827	-17.68
933.56	-26.91
934.294	-13.58
935.027	1.79
935.761	-21.78
936.494	-23.83
937.227	-41.26
937.96	-15.63
938.693	-21.78
939.426	-11.53
940.159	-32.03
940.892	-24.86
941.625	-23.83
942.358	-28.96
943.091	-38.19
943.823	-28.96
944.556	-16.66
945.288	-5.38
946.021	-16.66
946.753	-19.73
947.485	-27.93
948.217	5.89
948.95	-28.96
949.682	-9.48
950.414	-20.76
951.146	-19.73
951.877	-21.78
952.609	17.17
953.341	-18.71
954.073	-24.86
954.804	-13.58
955.536	-14.61
956.267	-39.21
956.998	2.82
957.73	-28.96
958.461	-24.86
959.192	-7.43
959.923	-19.73
960.654	-8.46
961.385	-12.56
962.116	-10.51
962.847	-16.66
963.578	-15.63
964.308	-11.53
965.039	-15.63
965.769	-14.61
966.5	-31.01
967.23	-26.91
967.961	-11.53
968.691	-27.93
969.421	-18.71
970.151	-28.96
970.881	-32.04
971.611	-16.66
972.341	-18.71
973.071	-35.11
973.801	-14.61
974.53	-12.56
975.26	-13.58
975.99	-24.86
976.719	-31.01
977.448	-12.56
978.178	-24.86
978.907	-10.51
979.636	-16.66
980.365	-16.66
981.095	-12.56
981.824	-26.91
982.553	-14.61
983.281	-26.91
984.01	-2.31
984.739	5.9
985.468	-4.36
986.196	3.85
986.925	-0.26
987.653	3.84
988.382	-12.56
989.11	-20.76
989.838	-6.41
990.566	5.89
991.295	-21.78
992.023	-13.58
992.751	-8.46
993.478	0.77
994.206	-10.51
994.934	-23.83
995.662	-4.36
996.389	4.87
997.117	-8.46
997.845	4.87
