Data from SampleKW32_Bg_Subt2_005.txt Node
Date: Fri Aug 23 09:23:12 EDT 2019
User: wcc
Spectrometer: QEPB0759
Trigger mode: 0
Integration Time (sec): 1.000000E0
Scans to average: 1
Electric dark correction enabled: true
Nonlinearity correction enabled: true
Boxcar width: 0
XAxis mode: Wavelengths
Number of Pixels in Spectrum: 1044
>>>>>Begin Spectral Data<<<<<
197.938	-6.53
198.749	-23.96
199.559	-5.51
200.369	-14.74
201.179	-21.91
201.988	-23.96
202.798	-8.58
203.608	-45.49
204.417	-28.06
205.227	-9.61
206.036	-23.96
206.846	-21.91
207.655	-31.13
208.464	-20.89
209.273	-15.76
210.082	-14.74
210.891	-26.01
211.7	-18.84
212.508	-37.29
213.317	-15.76
214.125	-7.56
214.934	-13.71
215.742	-20.89
216.55	-9.61
217.359	-12.69
218.167	-9.61
218.975	-27.03
219.782	-21.91
220.59	-26.01
221.398	-23.96
222.206	-21.91
223.013	-4.48
223.82	-16.79
224.628	-24.99
225.435	2.69
226.242	-10.63
227.049	-20.89
227.856	-6.54
228.663	-18.84
229.47	-20.89
230.277	-17.81
231.083	-24.99
231.89	-28.06
232.696	-12.68
233.502	-9.61
234.309	-35.24
235.115	-32.16
235.921	-20.89
236.727	-6.54
237.533	-41.38
238.339	-34.21
239.144	-27.04
239.95	-9.61
240.756	-18.84
241.561	-41.39
242.366	-22.94
243.172	-19.86
243.977	-20.88
244.782	-28.06
245.587	-16.78
246.392	-6.53
247.197	-31.14
248.001	-14.74
248.806	-3.46
249.611	-13.71
250.415	-17.81
251.219	-19.86
252.024	1.67
252.828	-19.86
253.632	4.74
254.436	-7.56
255.24	-24.98
256.044	-19.86
256.848	-17.81
257.651	-23.96
258.455	-27.04
259.258	-32.16
260.062	262.74
260.865	-27.04
261.668	-9.61
262.471	-27.04
263.274	-29.09
264.077	-16.79
264.88	-24.99
265.683	-18.84
266.486	4.74
267.288	-14.73
268.091	-2.43
268.893	-41.39
269.696	-15.76
270.498	-18.84
271.3	-34.21
272.102	-26.01
272.904	-32.16
273.706	-11.66
274.508	-11.66
275.309	-35.24
276.111	-8.58
276.913	-5.51
277.714	-21.91
278.515	-22.94
279.317	-20.88
280.118	-8.59
280.919	-32.16
281.72	-15.76
282.521	-26.01
283.322	-14.74
284.122	-16.79
284.923	-35.24
285.724	-13.71
286.524	-38.31
287.325	-28.06
288.125	-33.19
288.925	-19.86
289.725	-48.56
290.525	-9.61
291.325	-22.94
292.125	-11.66
292.925	-23.96
293.724	-17.81
294.524	-40.37
295.324	-5.51
296.123	-29.09
296.922	-6.53
297.722	-23.95
298.521	-21.91
299.32	-7.56
300.119	-31.14
300.918	-30.11
301.716	-19.86
302.515	-18.84
303.314	-27.03
304.112	-31.14
304.911	-19.86
305.709	-19.86
306.507	-24.98
307.306	-24.99
308.104	-16.79
308.902	-13.71
309.7	-26.01
310.498	-31.13
311.295	-23.96
312.093	-22.93
312.891	-24.98
313.688	-18.84
314.485	-15.76
315.283	-7.56
316.08	-17.81
316.877	-32.16
317.674	-14.74
318.471	-26.02
319.268	-16.79
320.065	-14.73
320.862	-32.16
321.658	-4.48
322.455	-3.46
323.251	-37.29
324.047	-22.94
324.844	-19.86
325.64	-8.59
326.436	-4.48
327.232	-27.04
328.028	-15.76
328.824	-7.56
329.62	-22.93
330.415	-21.91
331.211	-20.89
332.006	-5.51
332.802	-14.73
333.597	-24.99
334.392	-19.86
335.187	-15.76
335.982	-3.46
336.777	-2.43
337.572	-41.39
338.367	-30.11
339.162	-15.76
339.956	-15.76
340.751	-7.56
341.545	-20.88
342.34	-21.91
343.134	-14.74
343.928	-8.58
344.722	-17.81
345.516	-18.84
346.31	-36.26
347.104	-19.86
347.898	-17.81
348.691	-28.06
349.485	-22.94
350.278	-36.26
351.072	-7.56
351.865	-565.13
352.658	-15.76
353.452	-24.98
354.245	-7.56
355.038	-21.91
355.83	-22.94
356.623	-17.81
357.416	-24.99
358.209	-11.66
359.001	-21.91
359.794	-12.68
360.586	-18.83
361.378	-31.13
362.17	-18.84
362.963	-15.76
363.755	-6.53
364.546	-24.99
365.338	-26.01
366.13	-16.78
366.922	-24.99
367.713	-24.99
368.505	-21.91
369.296	-18.84
370.088	-6.54
370.879	-26.01
371.67	-30.11
372.461	-13.71
373.252	-18.84
374.043	-21.91
374.834	-30.12
375.625	-18.83
376.415	-10.63
377.206	-24.99
377.996	-24.99
378.787	-21.91
379.577	-35.24
380.367	-19.86
381.157	-18.84
381.947	-3.46
382.737	-13.71
383.527	-15.76
384.317	-11.66
385.107	-21.91
385.896	-40.36
386.686	-19.86
387.475	-35.24
388.265	-7.56
389.054	-30.1
389.843	-6.53
390.632	-33.19
391.421	-31.14
392.21	-20.88
392.999	-7.56
393.788	-16.79
394.576	-19.86
395.365	-29.09
396.154	-4.48
396.942	-23.96
397.73	-28.06
398.519	-23.96
399.307	-13.71
400.095	-22.94
400.883	-35.23
401.671	-19.86
402.459	-7.56
403.246	-32.16
404.034	-29.09
404.822	-18.84
405.609	-18.83
406.396	0.64
407.184	-21.91
407.971	-8.58
408.758	-5.51
409.545	-9.61
410.332	-26.01
411.119	-6.53
411.906	-18.84
412.693	-17.81
413.479	-16.78
414.266	-29.09
415.052	-19.86
415.839	-6.53
416.625	-40.36
417.411	-2.43
418.197	-16.78
418.983	-29.08
419.769	-1.41
420.555	-35.24
421.341	-7.56
422.127	-29.09
422.912	-35.24
423.698	-16.78
424.483	-24.99
425.269	-39.34
426.054	-24.99
426.839	-15.76
427.624	-7.56
428.409	-26.01
429.194	-16.79
429.979	-2.43
430.764	-7.56
431.549	-15.76
432.333	-18.84
433.118	-22.94
433.902	-44.46
434.687	-57.79
435.471	-55.74
436.255	-30.11
437.039	-4.48
437.823	-24.99
438.607	-13.71
439.391	-44.46
440.175	-29.09
440.958	-28.06
441.742	-14.74
442.526	-22.94
443.309	-33.19
444.092	-16.78
444.876	-20.89
445.659	-13.71
446.442	-31.13
447.225	-26.01
448.008	-10.63
448.791	-15.76
449.573	20.11
450.356	-16.78
451.139	-14.73
451.921	-22.94
452.704	-13.71
453.486	-10.64
454.268	-32.16
455.05	-2.43
455.833	-13.71
456.615	-17.81
457.396	-11.66
458.178	-15.76
458.96	-23.96
459.742	-11.66
460.523	-24.99
461.305	-1.41
462.086	-14.73
462.868	-20.88
463.649	2.69
464.43	-7.56
465.211	-10.63
465.992	-11.66
466.773	-7.56
467.554	0.64
468.335	-7.56
469.115	-9.61
469.896	-10.64
470.676	-12.69
471.457	-15.76
472.237	-15.76
473.018	-8.58
473.798	-11.66
474.578	-16.78
475.358	-17.81
476.138	-18.84
476.918	-11.66
477.697	-10.64
478.477	-3.46
479.257	-17.81
480.036	-24.99
480.816	-36.27
481.595	-28.06
482.374	-38.31
483.153	-19.86
483.932	-30.11
484.711	-35.24
485.49	-40.36
486.269	-33.19
487.048	-68.05
487.827	-32.16
488.605	-37.29
489.384	-37.29
490.162	-24.98
490.941	-38.31
491.719	-29.09
492.497	-42.41
493.275	-39.34
494.053	-31.13
494.831	-13.71
495.609	-20.89
496.387	-27.03
497.164	-29.09
497.942	-40.36
498.72	-28.06
499.497	-29.09
500.274	-18.84
501.052	-29.09
501.829	-9.61
502.606	-30.11
503.383	-43.44
504.16	-17.81
504.937	-32.16
505.714	-34.22
506.49	-15.76
507.267	-23.96
508.043	-31.14
508.82	-41.38
509.596	-13.71
510.373	-27.04
511.149	-24.99
511.925	-44.46
512.701	-0.38
513.477	-32.16
514.253	-20.89
515.029	-41.39
515.804	-44.46
516.58	-39.33
517.356	-16.79
518.131	-19.86
518.906	3.72
519.682	-21.91
520.457	-24.99
521.232	-8.59
522.007	-27.04
522.782	-29.09
523.557	2.69
524.332	-39.34
525.107	-26.01
525.881	-17.81
526.656	-26.02
527.43	-21.91
528.205	-39.34
528.979	-27.04
529.753	-26.01
530.527	-20.88
531.302	-32.16
532.076	-35.24
532.849	-33.19
533.623	-44.46
534.397	-31.14
535.171	-23.96
535.944	-20.88
536.718	-48.57
537.491	-35.23
538.265	-40.37
539.038	-42.41
539.811	-45.49
540.584	-51.64
541.357	-78.29
542.13	-69.05
542.903	-65.98
543.676	-69.06
544.449	-58.81
545.221	-74.18
545.994	-49.59
546.766	-43.44
547.539	-51.64
548.311	-74.19
549.083	-45.49
549.855	-44.47
550.627	-60.86
551.399	-42.41
552.171	-43.43
552.943	-36.26
553.715	-26.01
554.486	-21.91
555.258	-21.91
556.029	-23.96
556.801	-5.51
557.572	-26.01
558.343	-22.94
559.114	-34.21
559.886	-32.16
560.657	-12.69
561.427	-22.94
562.198	-18.84
562.969	-17.81
563.74	-12.69
564.51	-28.06
565.281	-47.53
566.051	-11.66
566.822	-26.01
567.592	-23.96
568.362	-10.64
569.132	-21.91
569.902	-27.03
570.672	-21.91
571.442	-35.24
572.212	-30.11
572.982	-17.81
573.751	-26.01
574.521	-27.04
575.29	-20.88
576.06	-40.36
576.829	-36.26
577.598	-42.41
578.367	-48.57
579.136	-17.81
579.905	-12.68
580.674	-21.91
581.443	-53.68
582.212	-38.31
582.981	-50.61
583.749	-40.36
584.518	-38.31
585.286	-28.06
586.054	-51.63
586.823	-51.64
587.591	-42.41
588.359	-39.33
589.127	-39.33
589.895	-42.41
590.663	-54.71
591.431	-57.78
592.198	-43.43
592.966	-37.28
593.734	-42.41
594.501	-20.89
595.268	-8.58
596.036	-44.46
596.803	-28.06
597.57	-41.39
598.337	-17.81
599.104	-36.26
599.871	-22.93
600.638	-23.96
601.405	-14.73
602.171	-14.74
602.938	-28.06
603.704	-10.64
604.471	-24.99
605.237	-18.83
606.004	-14.73
606.77	-28.06
607.536	-28.06
608.302	-28.06
609.068	-43.43
609.834	-52.66
610.599	-114.14
611.365	-61.89
612.131	-68.03
612.896	-38.31
613.662	-47.53
614.427	-23.96
615.193	-27.03
615.958	-26.01
616.723	-22.93
617.488	-2.43
618.253	1.67
619.018	-37.29
619.783	-22.94
620.548	-10.63
621.312	-15.76
622.077	-14.74
622.842	-15.76
623.606	-23.95
624.37	-20.88
625.135	-21.91
625.899	0.64
626.663	-5.51
627.427	-18.83
628.191	-7.56
628.955	-24.98
629.719	-17.81
630.483	-35.23
631.246	-18.84
632.01	-21.91
632.773	-8.58
633.537	3.72
634.3	4.74
635.063	1.67
635.827	-7.56
636.59	-8.59
637.353	0.64
638.116	4.74
638.879	1.67
639.641	4.74
640.404	-8.58
641.167	0.64
641.929	-0.38
642.692	3.72
643.454	4.74
644.216	-11.66
644.979	-12.68
645.741	-1.41
646.503	19.09
647.265	1.67
648.027	-2.43
648.789	1.67
649.551	-5.51
650.312	-7.56
651.074	0.64
651.835	-5.51
652.597	4.74
653.358	-9.61
654.12	1.67
654.881	-1.41
655.642	-8.58
656.403	-7.56
657.164	-6.53
657.925	5.77
658.686	6.79
659.447	4.74
660.207	8.84
660.968	12.94
661.728	-7.56
662.489	0.64
663.249	-6.53
664.01	13.97
664.77	-9.61
665.53	18.07
666.29	-6.54
667.05	0.64
667.81	10.89
668.57	0.64
669.329	-2.43
670.089	-11.66
670.849	14.99
671.608	9.87
672.368	2.69
673.127	-2.43
673.886	-2.43
674.646	4.74
675.405	-3.46
676.164	4.74
676.923	-5.51
677.682	-8.58
678.44	16.02
679.199	21.14
679.958	-13.71
680.717	4.74
681.475	13.97
682.233	7.82
682.992	-8.59
683.75	-3.46
684.508	-4.48
685.266	-2.43
686.024	-1.41
686.782	5.77
687.54	24.21
688.298	6.79
689.056	4.74
689.814	3.72
690.571	-0.38
691.329	8.84
692.086	3.72
692.843	16.02
693.601	16.02
694.358	-0.38
695.115	-0.38
695.872	4.74
696.629	7.82
697.386	3.72
698.143	-3.46
698.9	-5.51
699.656	1.67
700.413	-7.56
701.169	-1.41
701.926	13.97
702.682	7.82
703.438	16.02
704.195	8.84
704.951	5.77
705.707	-5.51
706.463	-5.51
707.219	-1.41
707.974	-29.09
708.73	-31.14
709.486	-20.89
710.241	-12.69
710.997	0.64
711.752	-14.73
712.508	-2.43
713.263	-1.41
714.018	10.89
714.773	-5.51
715.528	8.84
716.283	-3.46
717.038	-5.51
717.793	-5.51
718.548	-21.91
719.303	12.94
720.057	-1.41
720.812	-15.76
721.566	-9.61
722.321	-20.89
723.075	-3.46
723.829	-20.88
724.583	-13.71
725.337	-4.48
726.091	-2.43
726.845	-17.81
727.599	-12.69
728.353	-20.89
729.106	-19.86
729.86	-7.56
730.614	-32.16
731.367	105.32
732.12	-8.59
732.874	-7.56
733.627	-15.76
734.38	-15.76
735.133	-8.58
735.886	2.69
736.639	-20.89
737.392	-4.48
738.145	-14.74
738.897	-13.71
739.65	-8.59
740.403	-5.51
741.155	-14.73
741.907	-3.46
742.66	-20.88
743.412	-7.56
744.164	-22.94
744.916	-0.38
745.668	-29.09
746.42	-20.88
747.172	-5.51
747.924	-28.06
748.676	-8.59
749.427	-5.51
750.179	-20.88
750.93	0.64
751.682	-6.54
752.433	-20.88
753.184	-20.88
753.935	-10.64
754.687	-15.76
755.438	-22.93
756.189	-7.56
756.939	-23.96
757.69	-15.76
758.441	3.72
759.192	-9.61
759.942	-13.71
760.693	-24.98
761.443	-24.98
762.194	-16.79
762.944	-5.51
763.694	-33.18
764.444	-17.81
765.194	-19.86
765.944	-20.88
766.694	-36.26
767.444	-11.66
768.194	-16.78
768.943	-21.91
769.693	-16.78
770.443	-17.81
771.192	-43.43
771.941	-11.66
772.691	-24.98
773.44	-11.66
774.189	-16.78
774.938	-26.01
775.687	-21.91
776.436	-36.26
777.185	-21.91
777.934	-14.74
778.683	-29.09
779.431	-9.61
780.18	-22.93
780.928	-23.96
781.677	-18.84
782.425	-14.73
783.173	-30.11
783.922	-24.98
784.67	-23.96
785.418	-23.96
786.166	-28.06
786.914	-10.64
787.661	-21.91
788.409	-24.99
789.157	-19.86
789.904	-21.91
790.652	-22.93
791.399	-33.19
792.147	-15.76
792.894	-4.48
793.641	-16.79
794.388	-70.58
795.136	-1.41
795.883	-7.56
796.629	-19.86
797.376	-31.14
798.123	-15.76
798.87	-9.61
799.616	-35.24
800.363	-27.03
801.109	-21.91
801.856	-29.08
802.602	-23.97
803.349	-3.46
804.095	-21.91
804.841	-27.04
805.587	-21.91
806.333	-18.83
807.079	-24.98
807.825	-20.89
808.57	-33.19
809.316	-23.96
810.062	-42.41
810.807	-18.83
811.553	-10.63
812.298	-18.83
813.043	-17.81
813.788	-17.81
814.534	-7.56
815.279	-27.03
816.024	-20.88
816.769	-19.86
817.514	-13.71
818.258	-31.14
819.003	-22.93
819.748	-319.42
820.492	-15.76
821.237	-80.83
821.981	-6.53
822.726	-16.78
823.47	-26.01
824.214	-23.96
824.958	-46.51
825.702	-53.68
826.446	-30.11
827.19	-1.41
827.934	-26.01
828.678	-6.53
829.421	-10.63
830.165	-36.26
830.909	-22.94
831.652	-23.96
832.395	-16.78
833.139	-14.73
833.882	-28.05
834.625	-20.88
835.368	-21.91
836.111	-20.89
836.854	-42.41
837.597	-15.76
838.34	-19.86
839.083	-16.78
839.825	-24.98
840.568	-4.49
841.311	-14.73
842.053	-22.93
842.795	-18.84
843.538	-17.81
844.28	-27.04
845.022	-10.64
845.764	-23.95
846.506	-12.69
847.248	-38.31
847.99	-35.24
848.732	-14.73
849.474	-30.11
850.215	-22.94
850.957	-31.14
851.698	-17.81
852.44	-17.81
853.181	-17.81
853.922	-29.08
854.664	-6.53
855.405	-31.13
856.146	-18.84
856.887	-6.53
857.628	-26.01
858.369	-17.81
859.109	-28.06
859.85	-21.91
860.591	-21.91
861.331	-33.19
862.072	-18.84
862.812	-22.94
863.553	-28.06
864.293	-31.13
865.033	-29.09
865.773	-8.58
866.513	-20.89
867.253	-8.59
867.993	-11.66
868.733	-37.29
869.473	-27.04
870.213	-30.11
870.952	-30.12
871.692	-16.79
872.431	-16.79
873.171	-29.09
873.91	-5.51
874.649	-15.76
875.388	-11.66
876.128	-28.06
876.867	-31.14
877.606	-19.86
878.345	-24.99
879.083	-11.66
879.822	-33.19
880.561	-34.21
881.299	-40.36
882.038	-17.81
882.777	-10.63
883.515	-39.33
884.253	-52.05
884.992	-19.86
885.73	-29.09
886.468	-15.76
887.206	-3.46
887.944	-16.78
888.682	-20.88
889.42	-30.11
890.157	-8.58
890.895	-3.46
891.633	-34.18
892.37	-35.24
893.108	-31.14
893.845	-21.91
894.583	-33.19
895.32	-12.69
896.057	-28.06
896.794	-16.79
897.531	-30.11
898.268	-27.04
899.005	-32.16
899.742	-2.43
900.479	-20.89
901.215	-22.94
901.952	-15.76
902.689	-16.79
903.425	-9.61
904.162	-16.79
904.898	-23.96
905.634	-15.76
906.37	-36.26
907.106	-6.54
907.843	-16.78
908.579	-19.86
909.314	-18.84
910.05	-20.89
910.786	-24.99
911.522	-15.76
912.257	-40.36
912.993	-14.74
913.728	-18.84
914.464	-32.16
915.199	-5.51
915.935	-27.04
916.67	-34.21
917.405	-28.06
918.14	-20.89
918.875	-14.74
919.61	0.64
920.345	-26.01
921.08	-43.43
921.814	-9.61
922.549	-6.54
923.284	-35.23
924.018	-16.79
924.752	-36.26
925.487	-14.74
926.221	-12.68
926.955	-19.86
927.69	-21.91
928.424	-11.66
929.158	-22.94
929.892	-16.79
930.625	-3.46
931.359	-19.86
932.093	-9.61
932.827	-20.89
933.56	-20.89
934.294	-20.89
935.027	-11.66
935.761	-19.86
936.494	-20.89
937.227	-35.24
937.96	-31.14
938.693	-34.21
939.426	-15.76
940.159	-39.33
940.892	-26.01
941.625	-13.71
942.358	-28.06
943.091	-39.34
943.823	-40.37
944.556	-20.89
945.288	-7.56
946.021	-13.71
946.753	-7.56
947.485	-37.28
948.217	1.67
948.95	-30.11
949.682	-7.56
950.414	-14.74
951.146	-20.89
951.877	-13.71
952.609	16.02
953.341	-23.96
954.073	-17.81
954.804	-29.09
955.536	-17.81
956.267	-28.06
956.998	-1.41
957.73	-39.34
958.461	-21.91
959.192	-10.64
959.923	-12.68
960.654	-11.66
961.385	-2.43
962.116	-20.89
962.847	-19.86
963.578	-10.64
964.308	-32.16
965.039	-21.91
965.769	-29.09
966.5	-36.26
967.23	-22.94
967.961	-12.69
968.691	-21.91
969.421	-27.04
970.151	-22.93
970.881	-43.44
971.611	-22.93
972.341	-26.01
973.071	-30.11
973.801	-17.81
974.53	-10.64
975.26	-18.84
975.99	-21.91
976.719	-24.98
977.448	-11.66
978.178	-31.14
978.907	-17.81
979.636	-14.74
980.365	-41.39
981.095	-4.48
981.824	-17.81
982.553	-22.94
983.281	-27.04
984.01	-3.46
984.739	12.96
985.468	-3.46
986.196	-3.46
986.925	-33.17
987.653	-21.91
988.382	-6.53
989.11	-31.13
989.838	-6.53
990.566	-8.58
991.295	-28.06
992.023	-12.68
992.751	-12.68
993.478	-10.64
994.206	-33.19
994.934	-34.21
995.662	-1.41
996.389	0.64
997.117	-9.62
997.845	7.82
