Data from Sample_Subt2_004.txt Node
Date: Tue Aug 27 12:41:00 EDT 2019
User: wcc
Spectrometer: QEPB0759
Trigger mode: 0
Integration Time (sec): 1.000000E0
Scans to average: 1
Electric dark correction enabled: true
Nonlinearity correction enabled: false
Boxcar width: 0
XAxis mode: Wavelengths
Number of Pixels in Spectrum: 1044
>>>>>Begin Spectral Data<<<<<
197.938	33.75
198.749	44.75
199.559	34.75
200.369	29.75
201.179	31.75
201.988	28.75
202.798	33.75
203.608	22.75
204.417	26.75
205.227	32.75
206.036	25.75
206.846	29.75
207.655	35.75
208.464	23.75
209.273	39.75
210.082	28.75
210.891	34.75
211.7	39.75
212.508	34.75
213.317	31.75
214.125	24.75
214.934	35.75
215.742	24.75
216.55	33.75
217.359	23.75
218.167	33.75
218.975	36.75
219.782	38.75
220.59	22.75
221.398	28.75
222.206	36.75
223.013	36.75
223.82	37.75
224.628	28.75
225.435	28.75
226.242	25.75
227.049	18.75
227.856	28.75
228.663	38.75
229.47	34.75
230.277	31.75
231.083	41.75
231.89	24.75
232.696	32.75
233.502	29.75
234.309	34.75
235.115	25.75
235.921	11.75
236.727	30.75
237.533	31.75
238.339	29.75
239.144	29.75
239.95	31.75
240.756	31.75
241.561	27.75
242.366	27.75
243.172	24.75
243.977	30.75
244.782	26.75
245.587	27.75
246.392	20.75
247.197	10.75
248.001	30.75
248.806	36.75
249.611	22.75
250.415	23.75
251.219	32.75
252.024	33.75
252.828	35.75
253.632	19.75
254.436	32.75
255.24	25.75
256.044	24.75
256.848	23.75
257.651	20.75
258.455	32.75
259.258	27.75
260.062	1934.75
260.865	26.75
261.668	31.75
262.471	8.75
263.274	23.75
264.077	23.75
264.88	17.75
265.683	40.75
266.486	3.75
267.288	27.75
268.091	36.75
268.893	29.75
269.696	29.75
270.498	32.75
271.3	28.75
272.102	20.75
272.904	20.75
273.706	32.75
274.508	10.75
275.309	50.75
276.111	32.75
276.913	26.75
277.714	35.75
278.515	13.75
279.317	26.75
280.118	32.75
280.919	17.75
281.72	20.75
282.521	27.75
283.322	18.75
284.122	21.75
284.923	19.75
285.724	26.75
286.524	35.75
287.325	35.75
288.125	31.75
288.925	34.75
289.725	5.75
290.525	26.75
291.325	33.75
292.125	24.75
292.925	25.75
293.724	19.75
294.524	28.75
295.324	24.75
296.123	17.75
296.922	23.75
297.722	33.75
298.521	33.75
299.32	21.75
300.119	25.75
300.918	30.75
301.716	26.75
302.515	23.75
303.314	24.75
304.112	19.75
304.911	14.75
305.709	24.75
306.507	31.75
307.306	14.75
308.104	24.75
308.902	23.75
309.7	31.75
310.498	28.75
311.295	31.75
312.093	23.75
312.891	24.75
313.688	30.75
314.485	17.75
315.283	33.75
316.08	19.75
316.877	25.75
317.674	11.75
318.471	42.75
319.268	33.75
320.065	30.75
320.862	19.75
321.658	36.75
322.455	25.75
323.251	24.75
324.047	33.75
324.844	14.75
325.64	21.75
326.436	26.75
327.232	24.75
328.028	25.75
328.824	35.75
329.62	29.75
330.415	25.75
331.211	20.75
332.006	22.75
332.802	29.75
333.597	29.75
334.392	24.75
335.187	22.75
335.982	33.75
336.777	32.75
337.572	30.75
338.367	30.75
339.162	33.75
339.956	17.75
340.751	22.75
341.545	32.75
342.34	12.75
343.134	21.75
343.928	25.75
344.722	24.75
345.516	26.75
346.31	22.75
347.104	26.75
347.898	30.75
348.691	21.75
349.485	21.75
350.278	23.75
351.072	37.75
351.865	110.75
352.658	29.75
353.452	18.75
354.245	21.75
355.038	38.75
355.83	25.75
356.623	34.75
357.416	24.75
358.209	35.75
359.001	25.75
359.794	35.75
360.586	48.75
361.378	30.75
362.17	17.75
362.963	26.75
363.755	23.75
364.546	32.75
365.338	32.75
366.13	28.75
366.922	20.75
367.713	39.75
368.505	35.75
369.296	30.75
370.088	33.75
370.879	24.75
371.67	32.75
372.461	40.75
373.252	31.75
374.043	42.75
374.834	36.75
375.625	58.75
376.415	39.75
377.206	48.75
377.996	71.75
378.787	67.75
379.577	80.75
380.367	100.75
381.157	114.75
381.947	133.75
382.737	155.75
383.527	185.75
384.317	211.75
385.107	244.75
385.896	264.75
386.686	304.75
387.475	360.75
388.265	412.75
389.054	466.75
389.843	525.75
390.632	582.75
391.421	631.75
392.21	698.75
392.999	754.75
393.788	846.75
394.576	915.75
395.365	997.75
396.154	1077.75
396.942	1157.75
397.73	1227.75
398.519	1293.75
399.307	1373.75
400.095	1462.75
400.883	1506.75
401.671	1605.75
402.459	1683.75
403.246	1771.75
404.034	1886.75
404.822	1958.75
405.609	2028.75
406.396	2111.75
407.184	2165.75
407.971	2209.75
408.758	2259.75
409.545	2308.75
410.332	2372.75
411.119	2459.75
411.906	2543.75
412.693	2654.75
413.479	2777.75
414.266	2934.75
415.052	3106.75
415.839	3265.75
416.625	3420.75
417.411	3613.75
418.197	3765.75
418.983	3893.75
419.769	3920.75
420.555	3889.75
421.341	3859.75
422.127	3821.75
422.912	3787.75
423.698	3795.75
424.483	3829.75
425.269	3897.75
426.054	3949.75
426.839	4086.75
427.624	4160.75
428.409	4384.75
429.194	4589.75
429.979	4771.75
430.764	5002.75
431.549	5163.75
432.333	5368.75
433.118	5507.75
433.902	5645.75
434.687	5800.75
435.471	5926.75
436.255	6084.75
437.039	6275.75
437.823	6430.75
438.607	6564.75
439.391	6626.75
440.175	6766.75
440.958	6901.75
441.742	7069.75
442.526	7222.75
443.309	7414.75
444.092	7612.75
444.876	7802.75
445.659	7894.75
446.442	8110.75
447.225	8398.75
448.008	8822.75
448.791	9674.75
449.573	10389.75
450.356	10412.75
451.139	10319.75
451.921	10445.75
452.704	10322.75
453.486	10235.75
454.268	10439.75
455.05	10653.75
455.833	10949.75
456.615	11290.75
457.396	11560.75
458.178	11575.75
458.96	11537.75
459.742	11491.75
460.523	11626.75
461.305	11880.75
462.086	12121.75
462.868	12122.75
463.649	11949.75
464.43	11687.75
465.211	11712.75
465.992	12262.75
466.773	13058.75
467.554	13546.75
468.335	13241.75
469.115	12661.75
469.896	12034.75
470.676	11504.75
471.457	11304.75
472.237	11908.75
473.018	12038.75
473.798	11026.75
474.578	9972.75
475.358	9362.75
476.138	9020.75
476.918	8697.75
477.697	8413.75
478.477	8286.75
479.257	8204.75
480.036	8365.75
480.816	8370.75
481.595	8152.75
482.374	7778.75
483.153	7398.75
483.932	6982.75
484.711	6534.75
485.49	6240.75
486.269	5890.75
487.048	5679.75
487.827	5482.75
488.605	5320.75
489.384	5159.75
490.162	5085.75
490.941	5158.75
491.719	5136.75
492.497	4891.75
493.275	4565.75
494.053	4257.75
494.831	3993.75
495.609	3729.75
496.387	3514.75
497.164	3310.75
497.942	3120.75
498.72	2940.75
499.497	2768.75
500.274	2599.75
501.052	2424.75
501.829	2257.75
502.606	2079.75
503.383	1887.75
504.16	1747.75
504.937	1575.75
505.714	1407.75
506.49	1267.75
507.267	1083.75
508.043	950.75
508.82	847.75
509.596	731.75
510.373	622.75
511.149	557.75
511.925	455.75
512.701	388.75
513.477	338.75
514.253	286.75
515.029	244.75
515.804	206.75
516.58	180.75
517.356	162.75
518.131	133.75
518.906	116.75
519.682	103.75
520.457	101.75
521.232	91.75
522.007	95.75
522.782	73.75
523.557	72.75
524.332	51.75
525.107	75.75
525.881	62.75
526.656	66.75
527.43	67.75
528.205	60.75
528.979	59.75
529.753	64.75
530.527	72.75
531.302	56.75
532.076	55.75
532.849	54.75
533.623	53.75
534.397	49.75
535.171	61.75
535.944	54.75
536.718	49.75
537.491	56.75
538.265	55.75
539.038	53.75
539.811	54.75
540.584	38.75
541.357	47.75
542.13	65.75
542.903	49.75
543.676	51.75
544.449	46.75
545.221	41.75
545.994	48.75
546.766	42.75
547.539	35.75
548.311	53.75
549.083	44.75
549.855	43.75
550.627	55.75
551.399	49.75
552.171	57.75
552.943	66.75
553.715	43.75
554.486	49.75
555.258	30.75
556.029	55.75
556.801	58.75
557.572	61.75
558.343	51.75
559.114	47.75
559.886	49.75
560.657	53.75
561.427	46.75
562.198	48.75
562.969	50.75
563.74	58.75
564.51	45.75
565.281	65.75
566.051	47.75
566.822	48.75
567.592	47.75
568.362	46.75
569.132	62.75
569.902	61.75
570.672	54.75
571.442	62.75
572.212	65.75
572.982	50.75
573.751	52.75
574.521	69.75
575.29	52.75
576.06	52.75
576.829	52.75
577.598	52.75
578.367	50.75
579.136	55.75
579.905	59.75
580.674	64.75
581.443	68.75
582.212	64.75
582.981	63.75
583.749	73.75
584.518	82.75
585.286	77.75
586.054	88.75
586.823	99.75
587.591	74.75
588.359	112.75
589.127	131.75
589.895	147.75
590.663	172.75
591.431	231.75
592.198	313.75
592.966	414.75
593.734	569.75
594.501	778.75
595.268	1087.75
596.036	1474.75
596.803	1956.75
597.57	2537.75
598.337	3269.75
599.104	4083.75
599.871	5043.75
600.638	6104.75
601.405	7251.75
602.171	8506.75
602.938	9837.75
603.704	11136.75
604.471	12529.75
605.237	13884.75
606.004	15199.75
606.77	16553.75
607.536	17828.75
608.302	19127.75
609.068	20357.75
609.834	21409.75
610.599	22551.75
611.365	23608.75
612.131	24589.75
612.896	25518.75
613.662	26243.75
614.427	27026.75
615.193	27639.75
615.958	28200.75
616.723	28762.75
617.488	29254.75
618.253	29696.75
619.018	29967.75
619.783	30206.75
620.548	30644.75
621.312	30768.75
622.077	30927.75
622.842	31011.75
623.606	31099.75
624.37	31202.75
625.135	31133.75
625.899	31201.75
626.663	31057.75
627.427	30864.75
628.191	30739.75
628.955	30640.75
629.719	30476.75
630.483	30379.75
631.246	30182.75
632.01	29879.75
632.773	29646.75
633.537	29349.75
634.3	29074.75
635.063	28824.75
635.827	28516.75
636.59	28181.75
637.353	27902.75
638.116	27610.75
638.879	27311.75
639.641	27106.75
640.404	26816.75
641.167	26551.75
641.929	26359.75
642.692	26053.75
643.454	25918.75
644.216	25711.75
644.979	25506.75
645.741	25358.75
646.503	25202.75
647.265	25190.75
648.027	24948.75
648.789	24835.75
649.551	24728.75
650.312	24293.75
651.074	23826.75
651.835	23516.75
652.597	23308.75
653.358	23072.75
654.12	22857.75
654.881	22687.75
655.642	22567.75
656.403	22449.75
657.164	22333.75
657.925	22310.75
658.686	22248.75
659.447	22299.75
660.207	22264.75
660.968	22392.75
661.728	22393.75
662.489	22460.75
663.249	22585.75
664.01	22723.75
664.77	22794.75
665.53	22887.75
666.29	22971.75
667.05	23050.75
667.81	23157.75
668.57	23291.75
669.329	23252.75
670.089	23322.75
670.849	23411.75
671.608	23559.75
672.368	23455.75
673.127	23482.75
673.886	23503.75
674.646	23409.75
675.405	23421.75
676.164	23310.75
676.923	23200.75
677.682	23014.75
678.44	22967.75
679.199	22861.75
679.958	22800.75
680.717	22917.75
681.475	23290.75
682.233	23821.75
682.992	23985.75
683.75	23533.75
684.508	22956.75
685.266	22400.75
686.024	21948.75
686.782	21737.75
687.54	21467.75
688.298	21299.75
689.056	20907.75
689.814	20541.75
690.571	20241.75
691.329	19743.75
692.086	19358.75
692.843	19031.75
693.601	18685.75
694.358	18266.75
695.115	17936.75
695.872	17654.75
696.629	17352.75
697.386	17128.75
698.143	16842.75
698.9	16582.75
699.656	16484.75
700.413	16295.75
701.169	16180.75
701.926	16093.75
702.682	16054.75
703.438	15890.75
704.195	15759.75
704.951	15639.75
705.707	15540.75
706.463	15494.75
707.219	15419.75
707.974	15408.75
708.73	15355.75
709.486	15348.75
710.241	15261.75
710.997	15231.75
711.752	15116.75
712.508	14902.75
713.263	14594.75
714.018	14201.75
714.773	13854.75
715.528	13430.75
716.283	13003.75
717.038	12605.75
717.793	12207.75
718.548	11748.75
719.303	11301.75
720.057	10786.75
720.812	10346.75
721.566	10047.75
722.321	9683.75
723.075	9414.75
723.829	9221.75
724.583	8999.75
725.337	8852.75
726.091	8655.75
726.845	8536.75
727.599	8500.75
728.353	8435.75
729.106	8269.75
729.86	8205.75
730.614	8229.75
731.367	8395.75
732.12	8434.75
732.874	8309.75
733.627	8029.75
734.38	7658.75
735.133	7236.75
735.886	6925.75
736.639	6702.75
737.392	6556.75
738.145	6448.75
738.897	6404.75
739.65	6328.75
740.403	6231.75
741.155	6122.75
741.907	5831.75
742.66	5448.75
743.412	4876.75
744.164	4269.75
744.916	3551.75
745.668	2693.75
746.42	1831.75
747.172	1123.75
747.924	590.75
748.676	311.75
749.427	199.75
750.179	153.75
750.93	139.75
751.682	112.75
752.433	111.75
753.184	114.75
753.935	98.75
754.687	101.75
755.438	94.75
756.189	89.75
756.939	87.75
757.69	78.75
758.441	77.75
759.192	78.75
759.942	70.75
760.693	74.75
761.443	84.75
762.194	69.75
762.944	65.75
763.694	80.75
764.444	69.75
765.194	77.75
765.944	67.75
766.694	63.75
767.444	56.75
768.194	66.75
768.943	53.75
769.693	58.75
770.443	44.75
771.192	60.75
771.941	43.75
772.691	52.75
773.44	57.75
774.189	51.75
774.938	54.75
775.687	55.75
776.436	40.75
777.185	55.75
777.934	48.75
778.683	43.75
779.431	48.75
780.18	50.75
780.928	34.75
781.677	50.75
782.425	52.75
783.173	51.75
783.922	53.75
784.67	49.75
785.418	57.75
786.166	53.75
786.914	59.75
787.661	44.75
788.409	55.75
789.157	51.75
789.904	46.75
790.652	34.75
791.399	50.75
792.147	54.75
792.894	38.75
793.641	28.75
794.388	126.75
795.136	34.75
795.883	40.75
796.629	27.75
797.376	29.75
798.123	29.75
798.87	41.75
799.616	38.75
800.363	39.75
801.109	26.75
801.856	36.75
802.602	13.75
803.349	35.75
804.095	33.75
804.841	34.75
805.587	32.75
806.333	39.75
807.079	34.75
807.825	32.75
808.57	23.75
809.316	48.75
810.062	25.75
810.807	32.75
811.553	36.75
812.298	29.75
813.043	41.75
813.788	24.75
814.534	29.75
815.279	23.75
816.024	22.75
816.769	20.75
817.514	18.75
818.258	29.75
819.003	32.75
819.748	276.75
820.492	22.75
821.237	109.75
821.981	22.75
822.726	23.75
823.47	24.75
824.214	19.75
824.958	35.75
825.702	31.75
826.446	32.75
827.19	19.75
827.934	27.75
828.678	24.75
829.421	18.75
830.165	13.75
830.909	28.75
831.652	18.75
832.395	25.75
833.139	20.75
833.882	27.75
834.625	7.75
835.368	21.75
836.111	25.75
836.854	30.75
837.597	32.75
838.34	23.75
839.083	28.75
839.825	23.75
840.568	18.75
841.311	14.75
842.053	29.75
842.795	18.75
843.538	27.75
844.28	24.75
845.022	15.75
845.764	16.75
846.506	12.75
847.248	23.75
847.99	19.75
848.732	27.75
849.474	9.75
850.215	17.75
850.957	20.75
851.698	21.75
852.44	20.75
853.181	27.75
853.922	24.75
854.664	25.75
855.405	34.75
856.146	27.75
856.887	33.75
857.628	16.75
858.369	14.75
859.109	25.75
859.85	25.75
860.591	19.75
861.331	32.75
862.072	21.75
862.812	21.75
863.553	26.75
864.293	38.75
865.033	23.75
865.773	20.75
866.513	12.75
867.253	16.75
867.993	16.75
868.733	24.75
869.473	13.75
870.213	31.75
870.952	20.75
871.692	17.75
872.431	38.75
873.171	26.75
873.91	31.75
874.649	17.75
875.388	32.75
876.128	26.75
876.867	13.75
877.606	20.75
878.345	24.75
879.083	20.75
879.822	19.75
880.561	20.75
881.299	33.75
882.038	25.75
882.777	20.75
883.515	27.75
884.253	215.75
884.992	18.75
885.73	12.75
886.468	20.75
887.206	29.75
887.944	33.75
888.682	25.75
889.42	30.75
890.157	10.75
890.895	19.75
891.633	27.75
892.37	22.75
893.108	21.75
893.845	27.75
894.583	15.75
895.32	23.75
896.057	19.75
896.794	23.75
897.531	21.75
898.268	17.75
899.005	27.75
899.742	32.75
900.479	13.75
901.215	14.75
901.952	28.75
902.689	26.75
903.425	23.75
904.162	6.75
904.898	16.75
905.634	18.75
906.37	21.75
907.106	22.75
907.843	17.75
908.579	25.75
909.314	18.75
910.05	28.75
910.786	33.75
911.522	10.75
912.257	18.75
912.993	10.75
913.728	17.75
914.464	27.75
915.199	13.75
915.935	31.75
916.67	17.75
917.405	21.75
918.14	16.75
918.875	30.75
919.61	33.75
920.345	21.75
921.08	23.75
921.814	31.75
922.549	4.75
923.284	18.75
924.018	15.75
924.752	26.75
925.487	22.75
926.221	23.75
926.955	20.75
927.69	19.75
928.424	25.75
929.158	18.75
929.892	17.75
930.625	25.75
931.359	20.75
932.093	18.75
932.827	18.75
933.56	31.75
934.294	20.75
935.027	17.75
935.761	28.75
936.494	23.75
937.227	27.75
937.96	22.75
938.693	26.75
939.426	24.75
940.159	5.75
940.892	18.75
941.625	22.75
942.358	11.75
943.091	35.75
943.823	14.75
944.556	19.75
945.288	18.75
946.021	22.75
946.753	22.75
947.485	21.75
948.217	23.75
948.95	30.75
949.682	13.75
950.414	19.75
951.146	15.75
951.877	22.75
952.609	17.75
953.341	17.75
954.073	32.75
954.804	23.75
955.536	40.75
956.267	25.75
956.998	17.75
957.73	12.75
958.461	23.75
959.192	20.75
959.923	24.75
960.654	38.75
961.385	12.75
962.116	24.75
962.847	21.75
963.578	12.75
964.308	26.75
965.039	19.75
965.769	18.75
966.5	36.75
967.23	22.75
967.961	14.75
968.691	30.75
969.421	20.75
970.151	15.75
970.881	30.75
971.611	29.75
972.341	30.75
973.071	8.75
973.801	30.75
974.53	25.75
975.26	19.75
975.99	15.75
976.719	19.75
977.448	27.75
978.178	22.75
978.907	15.75
979.636	15.75
980.365	25.75
981.095	10.75
981.824	31.75
982.553	25.75
983.281	6.75
984.01	-1.25
984.739	9.75
985.468	-3.25
986.196	-6.25
986.925	33.75
987.653	32.75
988.382	15.75
989.11	27.75
989.838	24.75
990.566	24.75
991.295	10.75
992.023	22.75
992.751	18.75
993.478	18.75
994.206	28.75
994.934	25.75
995.662	-1.25
996.389	4.75
997.117	-2.25
997.845	-0.25
