Data from Sample_Subt2_002.txt Node
Date: Tue Aug 27 12:40:58 EDT 2019
User: wcc
Spectrometer: QEPB0759
Trigger mode: 0
Integration Time (sec): 1.000000E0
Scans to average: 1
Electric dark correction enabled: true
Nonlinearity correction enabled: false
Boxcar width: 0
XAxis mode: Wavelengths
Number of Pixels in Spectrum: 1044
>>>>>Begin Spectral Data<<<<<
197.938	22.75
198.749	42.75
199.559	29.75
200.369	26.75
201.179	18.75
201.988	25.75
202.798	37.75
203.608	20.75
204.417	28.75
205.227	31.75
206.036	23.75
206.846	26.75
207.655	30.75
208.464	22.75
209.273	23.75
210.082	21.75
210.891	35.75
211.7	30.75
212.508	35.75
213.317	24.75
214.125	22.75
214.934	37.75
215.742	28.75
216.55	23.75
217.359	32.75
218.167	42.75
218.975	29.75
219.782	29.75
220.59	20.75
221.398	27.75
222.206	26.75
223.013	33.75
223.82	43.75
224.628	33.75
225.435	27.75
226.242	23.75
227.049	27.75
227.856	26.75
228.663	40.75
229.47	31.75
230.277	29.75
231.083	27.75
231.89	25.75
232.696	33.75
233.502	36.75
234.309	37.75
235.115	22.75
235.921	14.75
236.727	26.75
237.533	18.75
238.339	38.75
239.144	34.75
239.95	29.75
240.756	30.75
241.561	27.75
242.366	33.75
243.172	25.75
243.977	21.75
244.782	29.75
245.587	37.75
246.392	28.75
247.197	12.75
248.001	34.75
248.806	33.75
249.611	29.75
250.415	39.75
251.219	30.75
252.024	21.75
252.828	31.75
253.632	27.75
254.436	36.75
255.24	37.75
256.044	25.75
256.848	19.75
257.651	25.75
258.455	23.75
259.258	33.75
260.062	1393.75
260.865	30.75
261.668	28.75
262.471	16.75
263.274	13.75
264.077	13.75
264.88	25.75
265.683	28.75
266.486	8.75
267.288	21.75
268.091	34.75
268.893	32.75
269.696	40.75
270.498	23.75
271.3	32.75
272.102	25.75
272.904	32.75
273.706	26.75
274.508	19.75
275.309	41.75
276.111	35.75
276.913	22.75
277.714	30.75
278.515	13.75
279.317	24.75
280.118	29.75
280.919	19.75
281.72	16.75
282.521	36.75
283.322	25.75
284.122	25.75
284.923	14.75
285.724	11.75
286.524	33.75
287.325	34.75
288.125	22.75
288.925	29.75
289.725	15.75
290.525	33.75
291.325	19.75
292.125	11.75
292.925	23.75
293.724	31.75
294.524	28.75
295.324	19.75
296.123	21.75
296.922	25.75
297.722	22.75
298.521	32.75
299.32	25.75
300.119	17.75
300.918	15.75
301.716	35.75
302.515	26.75
303.314	26.75
304.112	28.75
304.911	20.75
305.709	33.75
306.507	31.75
307.306	20.75
308.104	40.75
308.902	26.75
309.7	34.75
310.498	23.75
311.295	20.75
312.093	26.75
312.891	32.75
313.688	38.75
314.485	17.75
315.283	25.75
316.08	20.75
316.877	35.75
317.674	23.75
318.471	31.75
319.268	25.75
320.065	20.75
320.862	37.75
321.658	26.75
322.455	31.75
323.251	17.75
324.047	30.75
324.844	27.75
325.64	9.75
326.436	19.75
327.232	27.75
328.028	25.75
328.824	28.75
329.62	12.75
330.415	32.75
331.211	20.75
332.006	23.75
332.802	32.75
333.597	18.75
334.392	26.75
335.187	17.75
335.982	31.75
336.777	29.75
337.572	30.75
338.367	23.75
339.162	25.75
339.956	30.75
340.751	24.75
341.545	35.75
342.34	19.75
343.134	25.75
343.928	25.75
344.722	18.75
345.516	17.75
346.31	13.75
347.104	31.75
347.898	34.75
348.691	27.75
349.485	24.75
350.278	21.75
351.072	40.75
351.865	188.75
352.658	36.75
353.452	18.75
354.245	22.75
355.038	25.75
355.83	28.75
356.623	33.75
357.416	34.75
358.209	26.75
359.001	25.75
359.794	25.75
360.586	39.75
361.378	30.75
362.17	17.75
362.963	33.75
363.755	21.75
364.546	20.75
365.338	37.75
366.13	39.75
366.922	21.75
367.713	29.75
368.505	35.75
369.296	24.75
370.088	36.75
370.879	34.75
371.67	24.75
372.461	24.75
373.252	33.75
374.043	27.75
374.834	33.75
375.625	56.75
376.415	44.75
377.206	48.75
377.996	69.75
378.787	82.75
379.577	78.75
380.367	99.75
381.157	120.75
381.947	132.75
382.737	148.75
383.527	182.75
384.317	220.75
385.107	239.75
385.896	269.75
386.686	308.75
387.475	357.75
388.265	417.75
389.054	477.75
389.843	506.75
390.632	567.75
391.421	631.75
392.21	695.75
392.999	758.75
393.788	845.75
394.576	915.75
395.365	1005.75
396.154	1081.75
396.942	1141.75
397.73	1231.75
398.519	1311.75
399.307	1369.75
400.095	1460.75
400.883	1506.75
401.671	1603.75
402.459	1692.75
403.246	1773.75
404.034	1900.75
404.822	1941.75
405.609	2035.75
406.396	2114.75
407.184	2175.75
407.971	2216.75
408.758	2285.75
409.545	2328.75
410.332	2411.75
411.119	2472.75
411.906	2558.75
412.693	2689.75
413.479	2807.75
414.266	2958.75
415.052	3092.75
415.839	3305.75
416.625	3439.75
417.411	3647.75
418.197	3794.75
418.983	3905.75
419.769	3947.75
420.555	3923.75
421.341	3875.75
422.127	3842.75
422.912	3829.75
423.698	3813.75
424.483	3834.75
425.269	3891.75
426.054	3967.75
426.839	4113.75
427.624	4233.75
428.409	4414.75
429.194	4609.75
429.979	4816.75
430.764	5024.75
431.549	5212.75
432.333	5395.75
433.118	5553.75
433.902	5685.75
434.687	5817.75
435.471	5984.75
436.255	6115.75
437.039	6287.75
437.823	6493.75
438.607	6606.75
439.391	6686.75
440.175	6750.75
440.958	6950.75
441.742	7158.75
442.526	7268.75
443.309	7464.75
444.092	7624.75
444.876	7822.75
445.659	7992.75
446.442	8178.75
447.225	8431.75
448.008	8882.75
448.791	9715.75
449.573	10424.75
450.356	10509.75
451.139	10404.75
451.921	10440.75
452.704	10388.75
453.486	10258.75
454.268	10483.75
455.05	10720.75
455.833	10979.75
456.615	11352.75
457.396	11604.75
458.178	11617.75
458.96	11574.75
459.742	11557.75
460.523	11675.75
461.305	11900.75
462.086	12182.75
462.868	12223.75
463.649	12000.75
464.43	11768.75
465.211	11808.75
465.992	12290.75
466.773	13116.75
467.554	13609.75
468.335	13302.75
469.115	12748.75
469.896	12089.75
470.676	11532.75
471.457	11446.75
472.237	11989.75
473.018	12129.75
473.798	11088.75
474.578	9996.75
475.358	9434.75
476.138	9040.75
476.918	8709.75
477.697	8495.75
478.477	8326.75
479.257	8293.75
480.036	8426.75
480.816	8390.75
481.595	8202.75
482.374	7823.75
483.153	7442.75
483.932	7023.75
484.711	6587.75
485.49	6263.75
486.269	5966.75
487.048	5701.75
487.827	5520.75
488.605	5326.75
489.384	5197.75
490.162	5127.75
490.941	5190.75
491.719	5170.75
492.497	4947.75
493.275	4596.75
494.053	4318.75
494.831	3993.75
495.609	3759.75
496.387	3518.75
497.164	3331.75
497.942	3150.75
498.72	2976.75
499.497	2784.75
500.274	2597.75
501.052	2450.75
501.829	2273.75
502.606	2097.75
503.383	1921.75
504.16	1738.75
504.937	1590.75
505.714	1423.75
506.49	1260.75
507.267	1109.75
508.043	982.75
508.82	842.75
509.596	736.75
510.373	628.75
511.149	549.75
511.925	455.75
512.701	398.75
513.477	333.75
514.253	274.75
515.029	252.75
515.804	213.75
516.58	186.75
517.356	161.75
518.131	127.75
518.906	123.75
519.682	90.75
520.457	100.75
521.232	88.75
522.007	73.75
522.782	83.75
523.557	70.75
524.332	67.75
525.107	71.75
525.881	66.75
526.656	63.75
527.43	73.75
528.205	65.75
528.979	63.75
529.753	65.75
530.527	63.75
531.302	59.75
532.076	47.75
532.849	46.75
533.623	56.75
534.397	54.75
535.171	64.75
535.944	64.75
536.718	61.75
537.491	62.75
538.265	46.75
539.038	45.75
539.811	49.75
540.584	31.75
541.357	48.75
542.13	73.75
542.903	44.75
543.676	52.75
544.449	40.75
545.221	43.75
545.994	52.75
546.766	43.75
547.539	39.75
548.311	54.75
549.083	47.75
549.855	43.75
550.627	46.75
551.399	56.75
552.171	54.75
552.943	43.75
553.715	45.75
554.486	62.75
555.258	36.75
556.029	48.75
556.801	42.75
557.572	51.75
558.343	50.75
559.114	44.75
559.886	51.75
560.657	60.75
561.427	57.75
562.198	49.75
562.969	58.75
563.74	57.75
564.51	51.75
565.281	56.75
566.051	51.75
566.822	50.75
567.592	54.75
568.362	49.75
569.132	59.75
569.902	61.75
570.672	54.75
571.442	60.75
572.212	66.75
572.982	64.75
573.751	46.75
574.521	75.75
575.29	57.75
576.06	70.75
576.829	46.75
577.598	59.75
578.367	51.75
579.136	55.75
579.905	53.75
580.674	69.75
581.443	69.75
582.212	73.75
582.981	60.75
583.749	61.75
584.518	73.75
585.286	70.75
586.054	87.75
586.823	91.75
587.591	73.75
588.359	104.75
589.127	107.75
589.895	130.75
590.663	163.75
591.431	213.75
592.198	313.75
592.966	409.75
593.734	571.75
594.501	793.75
595.268	1079.75
596.036	1446.75
596.803	1964.75
597.57	2552.75
598.337	3254.75
599.104	4100.75
599.871	5068.75
600.638	6113.75
601.405	7293.75
602.171	8501.75
602.938	9840.75
603.704	11171.75
604.471	12552.75
605.237	13912.75
606.004	15280.75
606.77	16621.75
607.536	17920.75
608.302	19231.75
609.068	20400.75
609.834	21504.75
610.599	22622.75
611.365	23694.75
612.131	24728.75
612.896	25611.75
613.662	26378.75
614.427	27085.75
615.193	27782.75
615.958	28355.75
616.723	28958.75
617.488	29411.75
618.253	29822.75
619.018	30131.75
619.783	30420.75
620.548	30797.75
621.312	30972.75
622.077	31124.75
622.842	31280.75
623.606	31287.75
624.37	31301.75
625.135	31181.75
625.899	31350.75
626.663	31191.75
627.427	31002.75
628.191	30899.75
628.955	30805.75
629.719	30717.75
630.483	30495.75
631.246	30320.75
632.01	30052.75
632.773	29828.75
633.537	29475.75
634.3	29196.75
635.063	28985.75
635.827	28692.75
636.59	28323.75
637.353	28098.75
638.116	27779.75
638.879	27509.75
639.641	27253.75
640.404	26939.75
641.167	26693.75
641.929	26471.75
642.692	26240.75
643.454	26037.75
644.216	25864.75
644.979	25633.75
645.741	25495.75
646.503	25414.75
647.265	25238.75
648.027	25124.75
648.789	25008.75
649.551	24859.75
650.312	24469.75
651.074	24012.75
651.835	23717.75
652.597	23445.75
653.358	23130.75
654.12	22967.75
654.881	22741.75
655.642	22665.75
656.403	22554.75
657.164	22439.75
657.925	22415.75
658.686	22350.75
659.447	22385.75
660.207	22433.75
660.968	22482.75
661.728	22476.75
662.489	22576.75
663.249	22722.75
664.01	22809.75
664.77	22910.75
665.53	23014.75
666.29	23142.75
667.05	23169.75
667.81	23261.75
668.57	23367.75
669.329	23375.75
670.089	23395.75
670.849	23574.75
671.608	23653.75
672.368	23623.75
673.127	23624.75
673.886	23562.75
674.646	23606.75
675.405	23526.75
676.164	23481.75
676.923	23312.75
677.682	23201.75
678.44	23000.75
679.199	22941.75
679.958	22917.75
680.717	23054.75
681.475	23374.75
682.233	23937.75
682.992	24006.75
683.75	23681.75
684.508	22976.75
685.266	22561.75
686.024	22104.75
686.782	21764.75
687.54	21540.75
688.298	21396.75
689.056	20980.75
689.814	20620.75
690.571	20253.75
691.329	19840.75
692.086	19474.75
692.843	19101.75
693.601	18727.75
694.358	18336.75
695.115	18003.75
695.872	17739.75
696.629	17465.75
697.386	17217.75
698.143	16880.75
698.9	16697.75
699.656	16509.75
700.413	16377.75
701.169	16263.75
701.926	16164.75
702.682	16054.75
703.438	15918.75
704.195	15784.75
704.951	15711.75
705.707	15645.75
706.463	15583.75
707.219	15483.75
707.974	15452.75
708.73	15413.75
709.486	15377.75
710.241	15380.75
710.997	15262.75
711.752	15187.75
712.508	14977.75
713.263	14647.75
714.018	14291.75
714.773	13943.75
715.528	13472.75
716.283	13058.75
717.038	12679.75
717.793	12218.75
718.548	11774.75
719.303	11324.75
720.057	10836.75
720.812	10413.75
721.566	10048.75
722.321	9698.75
723.075	9463.75
723.829	9227.75
724.583	8982.75
725.337	8876.75
726.091	8724.75
726.845	8611.75
727.599	8527.75
728.353	8445.75
729.106	8334.75
729.86	8215.75
730.614	8216.75
731.367	8388.75
732.12	8456.75
732.874	8308.75
733.627	8068.75
734.38	7651.75
735.133	7286.75
735.886	6977.75
736.639	6748.75
737.392	6587.75
738.145	6506.75
738.897	6434.75
739.65	6340.75
740.403	6279.75
741.155	6128.75
741.907	5840.75
742.66	5439.75
743.412	4912.75
744.164	4285.75
744.916	3529.75
745.668	2687.75
746.42	1817.75
747.172	1119.75
747.924	583.75
748.676	313.75
749.427	202.75
750.179	152.75
750.93	125.75
751.682	113.75
752.433	117.75
753.184	112.75
753.935	107.75
754.687	83.75
755.438	94.75
756.189	92.75
756.939	86.75
757.69	75.75
758.441	80.75
759.192	70.75
759.942	76.75
760.693	82.75
761.443	96.75
762.194	75.75
762.944	73.75
763.694	79.75
764.444	70.75
765.194	78.75
765.944	65.75
766.694	70.75
767.444	60.75
768.194	66.75
768.943	45.75
769.693	57.75
770.443	54.75
771.192	64.75
771.941	51.75
772.691	49.75
773.44	43.75
774.189	47.75
774.938	54.75
775.687	39.75
776.436	36.75
777.185	44.75
777.934	40.75
778.683	44.75
779.431	61.75
780.18	58.75
780.928	50.75
781.677	47.75
782.425	51.75
783.173	54.75
783.922	49.75
784.67	31.75
785.418	47.75
786.166	47.75
786.914	44.75
787.661	41.75
788.409	45.75
789.157	52.75
789.904	31.75
790.652	51.75
791.399	39.75
792.147	44.75
792.894	40.75
793.641	40.75
794.388	105.75
795.136	31.75
795.883	42.75
796.629	30.75
797.376	42.75
798.123	28.75
798.87	47.75
799.616	44.75
800.363	44.75
801.109	31.75
801.856	43.75
802.602	19.75
803.349	38.75
804.095	29.75
804.841	25.75
805.587	36.75
806.333	34.75
807.079	43.75
807.825	26.75
808.57	23.75
809.316	47.75
810.062	29.75
810.807	29.75
811.553	47.75
812.298	39.75
813.043	39.75
813.788	19.75
814.534	20.75
815.279	23.75
816.024	32.75
816.769	31.75
817.514	24.75
818.258	27.75
819.003	34.75
819.748	290.75
820.492	19.75
821.237	93.75
821.981	17.75
822.726	27.75
823.47	21.75
824.214	19.75
824.958	32.75
825.702	21.75
826.446	26.75
827.19	24.75
827.934	16.75
828.678	26.75
829.421	18.75
830.165	24.75
830.909	20.75
831.652	19.75
832.395	27.75
833.139	19.75
833.882	39.75
834.625	18.75
835.368	20.75
836.111	19.75
836.854	23.75
837.597	20.75
838.34	20.75
839.083	31.75
839.825	26.75
840.568	31.75
841.311	24.75
842.053	29.75
842.795	15.75
843.538	21.75
844.28	18.75
845.022	14.75
845.764	6.75
846.506	13.75
847.248	21.75
847.99	9.75
848.732	32.75
849.474	7.75
850.215	3.75
850.957	21.75
851.698	19.75
852.44	21.75
853.181	32.75
853.922	18.75
854.664	25.75
855.405	38.75
856.146	30.75
856.887	29.75
857.628	26.75
858.369	6.75
859.109	21.75
859.85	23.75
860.591	14.75
861.331	36.75
862.072	19.75
862.812	15.75
863.553	18.75
864.293	31.75
865.033	18.75
865.773	23.75
866.513	15.75
867.253	20.75
867.993	21.75
868.733	22.75
869.473	19.75
870.213	19.75
870.952	19.75
871.692	20.75
872.431	25.75
873.171	15.75
873.91	22.75
874.649	17.75
875.388	31.75
876.128	32.75
876.867	19.75
877.606	23.75
878.345	21.75
879.083	17.75
879.822	24.75
880.561	27.75
881.299	35.75
882.038	23.75
882.777	22.75
883.515	18.75
884.253	204.75
884.992	24.75
885.73	15.75
886.468	19.75
887.206	28.75
887.944	35.75
888.682	28.75
889.42	26.75
890.157	19.75
890.895	18.75
891.633	27.75
892.37	38.75
893.108	31.75
893.845	34.75
894.583	16.75
895.32	28.75
896.057	24.75
896.794	20.75
897.531	26.75
898.268	13.75
899.005	15.75
899.742	28.75
900.479	24.75
901.215	6.75
901.952	22.75
902.689	23.75
903.425	21.75
904.162	-1.25
904.898	16.75
905.634	11.75
906.37	18.75
907.106	18.75
907.843	30.75
908.579	26.75
909.314	10.75
910.05	19.75
910.786	22.75
911.522	18.75
912.257	18.75
912.993	13.75
913.728	12.75
914.464	26.75
915.199	3.75
915.935	40.75
916.67	29.75
917.405	25.75
918.14	19.75
918.875	28.75
919.61	27.75
920.345	25.75
921.08	25.75
921.814	18.75
922.549	18.75
923.284	-24.25
924.018	10.75
924.752	14.75
925.487	25.75
926.221	15.75
926.955	15.75
927.69	17.75
928.424	23.75
929.158	17.75
929.892	8.75
930.625	27.75
931.359	26.75
932.093	21.75
932.827	21.75
933.56	19.75
934.294	9.75
935.027	15.75
935.761	22.75
936.494	30.75
937.227	23.75
937.96	15.75
938.693	24.75
939.426	15.75
940.159	8.75
940.892	23.75
941.625	13.75
942.358	19.75
943.091	14.75
943.823	12.75
944.556	16.75
945.288	22.75
946.021	20.75
946.753	19.75
947.485	19.75
948.217	19.75
948.95	24.75
949.682	0.75
950.414	12.75
951.146	28.75
951.877	16.75
952.609	18.75
953.341	17.75
954.073	25.75
954.804	16.75
955.536	30.75
956.267	16.75
956.998	10.75
957.73	16.75
958.461	13.75
959.192	14.75
959.923	17.75
960.654	38.75
961.385	14.75
962.116	21.75
962.847	20.75
963.578	24.75
964.308	27.75
965.039	18.75
965.769	8.75
966.5	35.75
967.23	15.75
967.961	16.75
968.691	37.75
969.421	34.75
970.151	25.75
970.881	30.75
971.611	36.75
972.341	21.75
973.071	7.75
973.801	28.75
974.53	34.75
975.26	25.75
975.99	11.75
976.719	22.75
977.448	26.75
978.178	24.75
978.907	20.75
979.636	27.75
980.365	11.75
981.095	12.75
981.824	33.75
982.553	21.75
983.281	21.75
984.01	-5.25
984.739	5.75
985.468	5.75
986.196	-4.25
986.925	37.75
987.653	30.75
988.382	32.75
989.11	22.75
989.838	28.75
990.566	42.75
991.295	7.75
992.023	28.75
992.751	20.75
993.478	5.75
994.206	17.75
994.934	17.75
995.662	-2.25
996.389	-0.25
997.117	-6.25
997.845	6.75
