Data from SampleKW32_Subt2_005.txt Node
Date: Fri Aug 23 09:22:26 EDT 2019
User: wcc
Spectrometer: QEPB0759
Trigger mode: 0
Integration Time (sec): 1.000000E0
Scans to average: 1
Electric dark correction enabled: true
Nonlinearity correction enabled: true
Boxcar width: 0
XAxis mode: Wavelengths
Number of Pixels in Spectrum: 1044
>>>>>Begin Spectral Data<<<<<
197.938	5.51
198.749	2.43
199.559	-8.84
200.369	1.41
201.179	9.61
201.988	-6.79
202.798	-0.64
203.608	-16.02
204.417	-12.94
205.227	5.51
206.036	0.38
206.846	-12.94
207.655	-5.77
208.464	-3.72
209.273	3.46
210.082	-14.99
210.891	-12.94
211.7	-9.87
212.508	-1.67
213.317	12.69
214.125	0.38
214.934	-16.02
215.742	11.66
216.55	19.86
217.359	0.38
218.167	-0.64
218.975	-5.77
219.782	-5.77
220.59	-2.69
221.398	-13.97
222.206	-5.76
223.013	8.58
223.82	2.43
224.628	-11.92
225.435	6.53
226.242	-4.74
227.049	-2.69
227.856	6.54
228.663	-5.77
229.47	13.71
230.277	-2.69
231.083	2.43
231.89	-7.82
232.696	-18.07
233.502	-14.99
234.309	-9.87
235.115	-2.69
235.921	6.53
236.727	2.43
237.533	-12.94
238.339	-29.34
239.144	4.48
239.95	-7.81
240.756	-8.84
241.561	-6.79
242.366	-17.04
243.172	6.53
243.977	2.43
244.782	-11.92
245.587	-0.64
246.392	-2.69
247.197	-0.64
248.001	-14.99
248.806	0.38
249.611	-6.79
250.415	-4.74
251.219	-2.69
252.024	-14.99
252.828	-6.79
253.632	-5.77
254.436	9.61
255.24	-17.04
256.044	8.58
256.848	-6.79
257.651	-10.89
258.455	-8.84
259.258	-0.64
260.062	1539.4
260.865	-13.97
261.668	14.73
262.471	-8.84
263.274	-19.09
264.077	0.38
264.88	-28.32
265.683	11.66
266.486	5.51
267.288	12.68
268.091	6.54
268.893	-30.37
269.696	-6.79
270.498	-18.07
271.3	-6.79
272.102	-8.84
272.904	-26.27
273.706	11.66
274.508	5.51
275.309	-16.02
276.111	1.41
276.913	7.56
277.714	-0.64
278.515	-32.42
279.317	14.73
280.118	-0.64
280.919	-16.02
281.72	4.48
282.521	-10.89
283.322	-2.69
284.122	-16.02
284.923	-18.07
285.724	-17.04
286.524	-20.12
287.325	-17.04
288.125	-6.79
288.925	-19.09
289.725	-40.62
290.525	-5.77
291.325	-16.02
292.125	-14.99
292.925	-9.87
293.724	-3.72
294.524	-28.32
295.324	2.43
296.123	-29.34
296.922	-8.84
297.722	-0.64
298.521	-9.87
299.32	-5.77
300.119	-24.22
300.918	-7.82
301.716	-7.81
302.515	-10.89
303.314	-4.74
304.112	-4.74
304.911	-24.21
305.709	-8.84
306.507	-14.99
307.306	-29.34
308.104	-16.02
308.902	-19.09
309.7	-16.02
310.498	-21.14
311.295	-13.97
312.093	-11.92
312.891	-27.29
313.688	19.86
314.485	-1.67
315.283	2.43
316.08	-13.97
316.877	-19.09
317.674	-20.12
318.471	-19.09
319.268	-12.94
320.065	-4.74
320.862	-23.19
321.658	2.43
322.455	-0.64
323.251	-30.37
324.047	-11.92
324.844	-2.69
325.64	-9.87
326.436	-8.84
327.232	-24.22
328.028	-2.69
328.824	-3.72
329.62	-17.04
330.415	-11.91
331.211	-7.82
332.006	-3.72
332.802	-20.11
333.597	-11.92
334.392	2.43
335.187	-8.84
335.982	14.74
336.777	5.51
337.572	-23.19
338.367	-7.82
339.162	-18.07
339.956	7.56
340.751	-9.87
341.545	-20.12
342.34	-19.09
343.134	-0.64
343.928	-16.02
344.722	-3.72
345.516	-9.87
346.31	-32.42
347.104	-19.09
347.898	-13.97
348.691	-19.09
349.485	6.54
350.278	-26.27
351.072	-21.14
351.865	6.46
352.658	-14.99
353.452	-14.99
354.245	-4.74
355.038	-5.77
355.83	-2.69
356.623	-12.94
357.416	-19.09
358.209	2.43
359.001	-18.07
359.794	-8.84
360.586	-8.84
361.378	-5.77
362.17	-9.87
362.963	-3.72
363.755	-0.64
364.546	-17.04
365.338	-13.97
366.13	2.43
366.922	-5.77
367.713	-8.84
368.505	-13.97
369.296	-2.69
370.088	14.74
370.879	-5.77
371.67	-18.07
372.461	1.41
373.252	2.43
374.043	2.43
374.834	-0.64
375.625	15.76
376.415	30.11
377.206	22.93
377.996	38.31
378.787	59.82
379.577	51.64
380.367	75.22
381.157	96.73
381.947	132.61
382.737	155.15
383.527	179.73
384.317	214.55
385.107	263.78
385.896	284.21
386.686	341.6
387.475	375.39
388.265	461.47
389.054	517.58
389.843	582.3
390.632	652.9
391.421	736.82
392.21	810.5
392.999	896.57
393.788	985.51
394.576	1074.44
395.365	1158.29
396.154	1273.93
396.942	1383.37
397.73	1459.9
398.519	1551.87
399.307	1642.76
400.095	1709.12
400.883	1816.13
401.671	1933.82
402.459	2046.06
403.246	2145.19
404.034	2264.53
404.822	2363.4
405.609	2499.77
406.396	2589.38
407.184	2648.11
407.971	2778.09
408.758	2835.16
409.545	2891
410.332	2979.69
411.119	3046
411.906	3145.26
412.693	3277.06
413.479	3374.7
414.266	3555.15
415.052	3793.69
415.839	3996.21
416.625	4208.63
417.411	4484.7
418.197	4693.15
418.983	4923.96
419.769	5018.89
420.555	4999.94
421.341	4986.87
422.127	4952.23
422.912	4903.71
423.698	4877.62
424.483	4908.75
425.269	4931.25
426.054	4965.16
426.839	5125.42
427.624	5293.24
428.409	5459.15
429.194	5723.43
429.979	5985.37
430.764	6281.66
431.549	6515.4
432.333	6795.28
433.118	7065.9
433.902	7263.19
434.687	7442.27
435.471	7697
436.255	7906.09
437.039	8131.71
437.823	8369.97
438.607	8592.95
439.391	8633.55
440.175	8745.57
440.958	8920.3
441.742	9128.4
442.526	9328.6
443.309	9546.48
444.092	9794.04
444.876	9984.97
445.659	10161.18
446.442	10396.93
447.225	10653.4
448.008	11113.6
448.791	12042.7
449.573	13250.17
450.356	13368.66
451.139	13004.43
451.921	13275.63
452.704	13205.34
453.486	12973.68
454.268	13162.69
455.05	13587.1
455.833	13935.51
456.615	14398.95
457.396	14830.32
458.178	15023.42
458.96	14971.49
459.742	14914.4
460.523	15079.38
461.305	15434.78
462.086	15874.85
462.868	15938.54
463.649	15743.5
464.43	15411.68
465.211	15335.97
465.992	15921.19
466.773	16956.54
467.554	17775.73
468.335	17644.68
469.115	16888.73
469.896	16058.48
470.676	15248.04
471.457	14900.66
472.237	15605.24
473.018	16276.96
473.798	15022.4
474.578	13435.47
475.358	12680.29
476.138	12213.5
476.918	11816.42
477.697	11517.81
478.477	11262.12
479.257	11266.35
480.036	11347.44
480.816	11432.11
481.595	11200.58
482.374	10692.51
483.153	10253.51
483.932	9637.92
484.711	9036.5
485.49	8482.42
486.269	8126.4
487.048	7752.57
487.827	7505.34
488.605	7264.82
489.384	7045.92
490.162	6920.1
490.941	7055.7
491.719	7106.6
492.497	6791.12
493.275	6294.99
494.053	5900.04
494.831	5502.84
495.609	5178.27
496.387	4852.49
497.164	4586.87
497.942	4286.56
498.72	4078.56
499.497	3799.01
500.274	3600.33
501.052	3356.68
501.829	3114.21
502.606	2853.83
503.383	2647.74
504.16	2404.14
504.937	2118.45
505.714	1906.45
506.49	1708.01
507.267	1487.71
508.043	1310.64
508.82	1111.13
509.596	991.78
510.373	846.38
511.149	707.25
511.925	593.55
512.701	507.53
513.477	415.3
514.253	350.82
515.029	270.93
515.804	213.55
516.58	219.67
517.356	162.32
518.131	151.02
518.906	144.91
519.682	102.88
520.457	83.41
521.232	85.46
522.007	70.08
522.782	70.09
523.557	62.92
524.332	27.04
525.107	39.33
525.881	52.66
526.656	42.42
527.43	33.19
528.205	9.61
528.979	28.06
529.753	40.36
530.527	32.16
531.302	31.14
532.076	12.68
532.849	37.29
533.623	1.41
534.397	36.26
535.171	30.11
535.944	18.83
536.718	0.38
537.491	10.63
538.265	12.69
539.038	-10.89
539.811	0.38
540.584	-7.82
541.357	-38.57
542.13	-37.53
542.903	-17.04
543.676	-40.62
544.449	-11.92
545.221	-23.19
545.994	4.48
546.766	0.38
547.539	-1.67
548.311	-19.09
549.083	10.63
549.855	-2.69
550.627	-4.74
551.399	-2.69
552.171	-1.67
552.943	2.43
553.715	13.71
554.486	11.66
555.258	13.71
556.029	24.99
556.801	34.21
557.572	21.91
558.343	11.66
559.114	13.71
559.886	15.76
560.657	22.94
561.427	28.06
562.198	23.96
562.969	32.16
563.74	27.04
564.51	16.79
565.281	18.83
566.051	41.39
566.822	14.74
567.592	20.89
568.362	31.14
569.132	10.64
569.902	41.38
570.672	34.21
571.442	24.98
572.212	22.93
572.982	43.44
573.751	32.16
574.521	32.16
575.29	41.38
576.06	9.61
576.829	18.84
577.598	14.74
578.367	21.91
579.136	54.71
579.905	49.58
580.674	33.18
581.443	9.61
582.212	14.73
582.981	51.63
583.749	43.44
584.518	47.53
585.286	47.53
586.054	37.28
586.823	58.8
587.591	68.04
588.359	75.2
589.127	107.99
589.895	126.43
590.663	154.09
591.431	243.24
592.198	344.65
592.966	502.36
593.734	708.06
594.501	982.42
595.268	1391.43
596.036	1851.81
596.803	2525.62
597.57	3277.26
598.337	4224.79
599.104	5290.75
599.871	6556.26
600.638	7913.87
601.405	9368.62
602.171	11016.36
602.938	12634.69
603.704	14402.89
604.471	16101.66
605.237	17736.82
606.004	19459.46
606.77	21147.64
607.536	22824.3
608.302	24422.13
609.068	25911.25
609.834	27326.55
610.599	28580.23
611.365	29951.37
612.131	31206.39
612.896	32304.98
613.662	33248.24
614.427	34185.66
615.193	34949.68
615.958	35700.76
616.723	36312.78
617.488	36888.32
618.253	37388.55
619.018	37689.03
619.783	38047.44
620.548	38243.72
621.312	38546.32
622.077	38780.82
622.842	38910.22
623.606	38959.14
624.37	39092.72
625.135	39079.29
625.899	39079.64
626.663	38828.06
627.427	38630.44
628.191	38557.51
628.955	38451.47
629.719	38361.95
630.483	38148.05
631.246	37947.01
632.01	37569.35
632.773	37278.3
633.537	36919.84
634.3	36517.41
635.063	36198.76
635.827	35803.48
636.59	35531.71
637.353	35025.29
638.116	34697.53
638.879	34352.84
639.641	34009.68
640.404	33589.37
641.167	33287.86
641.929	32888.47
642.692	32603.49
643.454	32286.26
644.216	31985.2
644.979	31675.64
645.741	31448.08
646.503	31292.68
647.265	31035.33
648.027	30928.14
648.789	30690.19
649.551	30395.08
650.312	29809.75
651.074	29281.92
651.835	28773.89
652.597	28451.89
653.358	28071.09
654.12	27840.52
654.881	27491.29
655.642	27243.83
656.403	27070.69
657.164	26945.8
657.925	26826.66
658.686	26756.45
659.447	26741.27
660.207	26689.02
660.968	26679.09
661.728	26677.27
662.489	26764.9
663.249	26801.44
664.01	26837.86
664.77	26917.35
665.53	27057.42
666.29	27087.13
667.05	27217.18
667.81	27193.03
668.57	27293.88
669.329	27279.43
670.089	27378.53
670.849	27491.76
671.608	27521.84
672.368	27511.64
673.127	27435.19
673.886	27407.7
674.646	27323.61
675.405	27229.07
676.164	27127.03
676.923	27078.93
677.682	26757.8
678.44	26624.07
679.199	26638.91
679.958	26549.85
680.717	26587.42
681.475	26990.38
682.233	27618.33
682.992	27674.68
683.75	27084.18
684.508	26295.89
685.266	25714.2
686.024	25247.95
686.782	24888.64
687.54	24578.11
688.298	24230.04
689.056	23809.52
689.814	23402.2
690.571	22814.59
691.329	22310.08
692.086	21802.8
692.843	21416.93
693.601	20880.59
694.358	20420.52
695.115	20003.7
695.872	19657.99
696.629	19299.36
697.386	19059.39
698.143	18709.79
698.9	18401.45
699.656	18265.02
700.413	18089.85
701.169	17904.25
701.926	17731.48
702.682	17611.58
703.438	17430.81
704.195	17272.41
704.951	17135.28
705.707	17064.11
706.463	16885.75
707.219	16878.89
707.974	16838.93
708.73	16797.96
709.486	16728.19
710.241	16691.81
710.997	16604.53
711.752	16479.79
712.508	16239.68
713.263	15852.79
714.018	15447.35
714.773	15061.5
715.528	14569.16
716.283	14129.8
717.038	13631.3
717.793	13249.96
718.548	12663.01
719.303	12171.24
720.057	11625.4
720.812	11210.01
721.566	10759.96
722.321	10387.99
723.075	10068.97
723.829	9829.64
724.583	9599.67
725.337	9391.22
726.091	9238.13
726.845	9101.86
727.599	8964.39
728.353	8865.51
729.106	8674.22
729.86	8586.58
730.614	8547.1
731.367	8574.45
732.12	8651.38
732.874	8529
733.627	8147.24
734.38	7700.47
735.133	7308.29
735.886	6971.48
736.639	6720.72
737.392	6550.75
738.145	6477.74
738.897	6397.55
739.65	6280.98
740.403	6161.3
741.155	5953.72
741.907	5651.28
742.66	5245.35
743.412	4697.33
744.164	4091.49
744.916	3359.24
745.668	2489.78
746.42	1638.4
747.172	966.07
747.924	488.07
748.676	252.51
749.427	155.15
750.179	115.17
750.93	108
751.682	94.69
752.433	67
753.184	68.02
753.935	62.91
754.687	69.06
755.438	58.81
756.189	46.51
756.939	40.36
757.69	39.34
758.441	64.96
759.192	38.31
759.942	51.63
760.693	36.26
761.443	49.58
762.194	44.46
762.944	47.54
763.694	52.66
764.444	44.46
765.194	64.96
765.944	27.03
766.694	19.86
767.444	32.16
768.194	21.91
768.943	19.86
769.693	2.43
770.443	14.73
771.192	4.48
771.941	32.17
772.691	-1.67
773.44	3.46
774.189	29.08
774.938	3.46
775.687	14.74
776.436	8.58
777.185	-3.72
777.934	10.64
778.683	21.91
779.431	5.51
780.18	-6.79
780.928	19.86
781.677	0.38
782.425	5.51
783.173	-11.92
783.922	2.43
784.67	21.91
785.418	-5.77
786.166	4.48
786.914	26.01
787.661	0.38
788.409	-1.67
789.157	1.41
789.904	3.46
790.652	5.51
791.399	0.38
792.147	9.61
792.894	23.96
793.641	15.76
794.388	356.29
795.136	14.73
795.883	22.94
796.629	3.46
797.376	-18.07
798.123	20.89
798.87	-9.87
799.616	-16.02
800.363	-0.64
801.109	-9.86
801.856	-10.89
802.602	7.56
803.349	-7.82
804.095	-2.69
804.841	-3.72
805.587	-8.84
806.333	-9.87
807.079	-5.77
807.825	-1.67
808.57	-10.89
809.316	-1.67
810.062	-31.39
810.807	-7.82
811.553	-1.67
812.298	-28.31
813.043	-18.07
813.788	-18.06
814.534	-6.79
815.279	-11.91
816.024	-21.14
816.769	4.48
817.514	-5.77
818.258	-25.24
819.003	0.38
819.748	-360.81
820.492	-8.84
821.237	-74.98
821.981	-3.72
822.726	-24.21
823.47	-17.04
824.214	-2.69
824.958	-26.27
825.702	-27.29
826.446	-12.94
827.19	4.48
827.934	-10.89
828.678	-2.69
829.421	-16.01
830.165	-13.97
830.909	-20.12
831.652	-9.87
832.395	-16.01
833.139	-8.84
833.882	-24.21
834.625	-16.02
835.368	-16.02
836.111	-0.64
836.854	-34.47
837.597	-19.09
838.34	-23.19
839.083	10.63
839.825	-12.94
840.568	-4.74
841.311	-14.99
842.053	-0.64
842.795	-16.02
843.538	-8.84
844.28	-10.89
845.022	-7.82
845.764	-17.04
846.506	0.38
847.248	-29.34
847.99	-28.32
848.732	-9.87
849.474	-29.34
850.215	-13.97
850.957	-21.14
851.698	-27.29
852.44	-22.17
853.181	-17.04
853.922	-6.79
854.664	-4.74
855.405	-22.16
856.146	-24.22
856.887	-8.84
857.628	-25.24
858.369	-11.92
859.109	-7.81
859.85	-14.99
860.591	-12.94
861.331	-16.02
862.072	-2.69
862.812	-18.07
863.553	-12.94
864.293	-16.01
865.033	-19.09
865.773	0.38
866.513	-9.87
867.253	-8.84
867.993	-11.92
868.733	-24.22
869.473	-18.07
870.213	-34.46
870.952	-24.22
871.692	-21.14
872.431	-12.94
873.171	-23.19
873.91	1.41
874.649	-13.97
875.388	-12.94
876.128	-20.12
876.867	-22.17
877.606	-24.22
878.345	-14.99
879.083	-2.69
879.822	-4.74
880.561	-28.32
881.299	-20.12
882.038	-8.84
882.777	6.53
883.515	-26.26
884.253	23.68
884.992	-24.22
885.73	-20.12
886.468	-5.77
887.206	-10.89
887.944	-17.04
888.682	-22.17
889.42	-12.94
890.157	-5.77
890.895	-4.74
891.633	-20.1
892.37	-26.27
893.108	-22.17
893.845	-30.37
894.583	-19.09
895.32	-6.79
896.057	-20.12
896.794	-8.84
897.531	-20.12
898.268	-33.44
899.005	-24.22
899.742	4.48
900.479	-36.52
901.215	-8.84
901.952	-20.12
902.689	-23.19
903.425	-0.64
904.162	-19.09
904.898	-19.09
905.634	-6.79
906.37	-11.92
907.106	2.43
907.843	-16.02
908.579	-8.84
909.314	-10.89
910.05	-17.04
910.786	-23.19
911.522	-9.87
912.257	-39.59
912.993	-20.12
913.728	-7.82
914.464	-22.17
915.199	-18.07
915.935	-18.07
916.67	-13.97
917.405	-12.94
918.14	-21.14
918.875	-13.97
919.61	-5.77
920.345	-13.96
921.08	-22.16
921.814	-14.99
922.549	-4.74
923.284	-21.14
924.018	-23.19
924.752	-38.56
925.487	-20.12
926.221	-26.27
926.955	-11.92
927.69	-18.07
928.424	-20.12
929.158	-16.02
929.892	-17.04
930.625	-21.14
931.359	-9.86
932.093	0.38
932.827	-10.89
933.56	-30.37
934.294	-9.87
935.027	-7.82
935.761	-7.82
936.494	-28.32
937.227	-27.29
937.96	-20.12
938.693	-24.22
939.426	-10.89
940.159	-41.64
940.892	-18.07
941.625	-4.74
942.358	-18.07
943.091	-18.07
943.823	-27.3
944.556	-4.74
945.288	0.38
946.021	-17.04
946.753	-12.94
947.485	-29.34
948.217	4.48
948.95	-37.54
949.682	-16.02
950.414	-30.37
951.146	-18.07
951.877	-17.04
952.609	22.94
953.341	-22.17
954.073	-27.29
954.804	-14.99
955.536	-17.04
956.267	-25.24
956.998	2.43
957.73	-38.57
958.461	-29.35
959.192	-3.72
959.923	-20.11
960.654	-7.82
961.385	-11.92
962.116	-20.12
962.847	-16.02
963.578	-17.04
964.308	-21.14
965.039	-13.97
965.769	-16.02
966.5	-18.07
967.23	-11.92
967.961	-11.92
968.691	-10.89
969.421	-18.07
970.151	-27.29
970.881	-34.47
971.611	-38.57
972.341	-22.17
973.071	-23.19
973.801	-9.87
974.53	-0.64
975.26	-26.27
975.99	-19.09
976.719	-26.27
977.448	-20.12
978.178	-29.34
978.907	-5.77
979.636	-9.87
980.365	-23.19
981.095	-3.72
981.824	-29.34
982.553	-20.12
983.281	-14.99
984.01	-0.64
984.739	0.38
985.468	-7.82
986.196	4.49
986.925	-5.76
987.653	-1.67
988.382	-12.94
989.11	-22.17
989.838	9.61
990.566	18.83
991.295	-26.27
992.023	-23.19
992.751	-12.94
993.478	-16.02
994.206	6.53
994.934	-26.27
995.662	-4.75
996.389	-0.64
997.117	-6.8
997.845	15.77
