Data from SampleKW32_Bg_Subt2_001.txt Node
Date: Fri Aug 23 09:23:08 EDT 2019
User: wcc
Spectrometer: QEPB0759
Trigger mode: 0
Integration Time (sec): 1.000000E0
Scans to average: 1
Electric dark correction enabled: true
Nonlinearity correction enabled: true
Boxcar width: 0
XAxis mode: Wavelengths
Number of Pixels in Spectrum: 1044
>>>>>Begin Spectral Data<<<<<
197.938	-13.58
198.749	-19.73
199.559	-11.53
200.369	-6.41
201.179	-12.56
201.988	-17.68
202.798	-13.58
203.608	-23.83
204.417	-29.98
205.227	-0.26
206.036	-9.48
206.846	-16.66
207.655	-11.53
208.464	-27.93
209.273	-15.63
210.082	-11.53
210.891	-21.78
211.7	-15.63
212.508	-24.86
213.317	-17.68
214.125	-20.76
214.934	0.77
215.742	-15.63
216.55	-12.56
217.359	-26.91
218.167	-9.48
218.975	-38.18
219.782	-18.71
220.59	-25.89
221.398	-26.91
222.206	-21.78
223.013	-12.56
223.82	-21.79
224.628	-13.58
225.435	-23.83
226.242	-24.86
227.049	-39.21
227.856	-10.51
228.663	-14.61
229.47	-9.48
230.277	-17.68
231.083	-22.81
231.89	-18.71
232.696	-27.93
233.502	-14.61
234.309	-22.81
235.115	-24.86
235.921	-25.88
236.727	-16.66
237.533	-22.81
238.339	-31.01
239.144	-21.78
239.95	-27.93
240.756	-11.53
241.561	-33.06
242.366	-23.83
243.172	-17.68
243.977	-19.73
244.782	-35.11
245.587	-7.43
246.392	-21.78
247.197	-17.68
248.001	-3.33
248.806	-16.66
249.611	-8.46
250.415	-2.31
251.219	-17.68
252.024	-12.56
252.828	-27.94
253.632	-14.61
254.436	-2.31
255.24	-23.83
256.044	-5.38
256.848	-2.31
257.651	-29.99
258.455	-22.81
259.258	-27.93
260.062	2408.86
260.865	-28.96
261.668	-14.61
262.471	-24.86
263.274	-32.03
264.077	-14.61
264.88	-25.88
265.683	-9.48
266.486	-0.26
267.288	-18.71
268.091	2.82
268.893	-66.89
269.696	-7.43
270.498	-17.68
271.3	-40.23
272.102	-27.93
272.904	-31.01
273.706	11.02
274.508	-15.63
275.309	-25.88
276.111	-13.58
276.913	0.77
277.714	-18.71
278.515	-28.96
279.317	-7.43
280.118	-2.31
280.919	-17.68
281.72	2.82
282.521	-20.76
283.322	-9.48
284.122	-14.61
284.923	-9.48
285.724	-17.68
286.524	-13.58
287.325	-35.1
288.125	-26.91
288.925	-26.91
289.725	-35.11
290.525	-10.51
291.325	-20.76
292.125	-6.41
292.925	-15.63
293.724	-12.56
294.524	-19.73
295.324	-11.53
296.123	-40.23
296.922	-23.83
297.722	-20.75
298.521	-8.46
299.32	-0.26
300.119	-26.91
300.918	-27.93
301.716	-21.78
302.515	-27.93
303.314	-21.78
304.112	-26.91
304.911	-22.8
305.709	-23.83
306.507	-17.68
307.306	-31.01
308.104	-13.58
308.902	-27.93
309.7	-24.86
310.498	-15.63
311.295	-21.79
312.093	-20.76
312.891	-23.83
313.688	-26.91
314.485	-8.46
315.283	-8.46
316.08	-17.68
316.877	-34.08
317.674	-27.93
318.471	-28.96
319.268	-8.46
320.065	-13.58
320.862	-26.91
321.658	-12.56
322.455	-5.38
323.251	-33.06
324.047	-24.86
324.844	-20.76
325.64	-14.61
326.436	-14.61
327.232	-19.73
328.028	-6.41
328.824	-17.68
329.62	-17.68
330.415	-22.8
331.211	-20.76
332.006	-12.56
332.802	-27.93
333.597	-28.96
334.392	-12.56
335.187	-18.71
335.982	-9.48
336.777	6.92
337.572	-26.91
338.367	-11.53
339.162	-25.88
339.956	-7.43
340.751	-14.61
341.545	-15.63
342.34	-26.91
343.134	-15.63
343.928	-22.81
344.722	-18.71
345.516	-19.73
346.31	-41.26
347.104	-27.93
347.898	-10.51
348.691	-28.96
349.485	-2.31
350.278	-24.86
351.072	-18.7
351.865	-95.51
352.658	-1.28
353.452	-14.61
354.245	-13.58
355.038	-8.46
355.83	-17.68
356.623	-26.91
357.416	-6.41
358.209	-10.51
359.001	-26.91
359.794	-21.78
360.586	-21.78
361.378	-28.96
362.17	-27.93
362.963	-22.81
363.755	-17.68
364.546	-31.01
365.338	-37.16
366.13	-9.48
366.922	-36.13
367.713	-29.98
368.505	-18.71
369.296	-18.71
370.088	-7.43
370.879	-36.14
371.67	-24.86
372.461	-15.63
373.252	-14.61
374.043	-22.81
374.834	-20.76
375.625	-24.86
376.415	-19.73
377.206	-14.61
377.996	-28.96
378.787	-16.65
379.577	-12.56
380.367	-15.63
381.157	-17.68
381.947	-8.46
382.737	-14.61
383.527	-27.93
384.317	-9.48
385.107	-13.58
385.896	-17.68
386.686	-31.01
387.475	-28.96
388.265	-11.53
389.054	-27.92
389.843	-14.61
390.632	-22.81
391.421	-19.73
392.21	-13.58
392.999	-7.43
393.788	-12.56
394.576	-28.96
395.365	-25.88
396.154	-5.38
396.942	-22.81
397.73	-36.13
398.519	-22.81
399.307	-4.36
400.095	-32.03
400.883	-26.9
401.671	-20.76
402.459	-9.48
403.246	-18.71
404.034	-5.38
404.822	-37.16
405.609	-22.81
406.396	-9.48
407.184	-18.71
407.971	-16.66
408.758	-8.46
409.545	-7.43
410.332	-5.38
411.119	-16.66
411.906	-15.63
412.693	-21.78
413.479	-15.63
414.266	-8.46
415.052	-13.58
415.839	-10.51
416.625	-12.56
417.411	-11.53
418.197	-10.51
418.983	-9.48
419.769	-11.53
420.555	-12.56
421.341	-3.33
422.127	-16.66
422.912	-22.81
423.698	-18.71
424.483	-29.98
425.269	-28.96
426.054	-19.74
426.839	-13.58
427.624	-9.48
428.409	-14.61
429.194	-1.28
429.979	-0.26
430.764	-8.46
431.549	-24.86
432.333	-23.83
433.118	-6.41
433.902	-42.28
434.687	-40.23
435.471	-55.61
436.255	-17.68
437.039	-7.43
437.823	-12.56
438.607	1.79
439.391	-37.16
440.175	-12.56
440.958	-20.76
441.742	-10.51
442.526	-22.81
443.309	-25.88
444.092	-28.96
444.876	-22.81
445.659	-19.73
446.442	-8.46
447.225	-18.71
448.008	-26.9
448.791	-10.51
449.573	20.24
450.356	-7.43
451.139	-10.51
451.921	-12.56
452.704	3.84
453.486	-17.68
454.268	-22.81
455.05	-0.26
455.833	-8.46
456.615	-4.36
457.396	-5.38
458.178	-6.41
458.96	-19.73
459.742	-16.66
460.523	-19.73
461.305	-9.48
462.086	-1.28
462.868	-13.58
463.649	-2.31
464.43	-3.33
465.211	-19.73
465.992	-0.26
466.773	-8.46
467.554	-1.28
468.335	-15.63
469.115	-5.38
469.896	-1.28
470.676	-17.68
471.457	-22.81
472.237	-3.33
473.018	1.79
473.798	-7.43
474.578	-13.58
475.358	-23.83
476.138	-12.56
476.918	-19.73
477.697	-9.48
478.477	-4.36
479.257	-8.46
480.036	-8.46
480.816	-24.86
481.595	-16.66
482.374	-29.98
483.153	-17.68
483.932	-18.71
484.711	-26.91
485.49	-51.51
486.269	-26.91
487.048	-55.61
487.827	-36.13
488.605	-40.23
489.384	-42.29
490.162	-27.93
490.941	-51.5
491.719	-22.81
492.497	-22.81
493.275	-26.91
494.053	-25.88
494.831	-27.93
495.609	-8.46
496.387	-27.93
497.164	-41.26
497.942	-28.96
498.72	-22.81
499.497	-32.03
500.274	-14.61
501.052	-27.93
501.829	-17.68
502.606	-12.56
503.383	-31.01
504.16	-8.46
504.937	-21.78
505.714	-20.76
506.49	-17.68
507.267	-26.91
508.043	-32.03
508.82	-34.08
509.596	-10.51
510.373	-34.09
511.149	-35.11
511.925	-34.08
512.701	-15.63
513.477	-27.93
514.253	-31.01
515.029	-28.96
515.804	-39.21
516.58	-42.28
517.356	-15.63
518.131	-29.98
518.906	-10.51
519.682	-23.83
520.457	-34.08
521.232	-8.46
522.007	-32.03
522.782	-15.63
523.557	-11.53
524.332	-32.04
525.107	-25.88
525.881	-13.58
526.656	-19.74
527.43	-28.96
528.205	-39.21
528.979	-27.94
529.753	-20.76
530.527	-21.78
531.302	-29.99
532.076	-32.03
532.849	-27.93
533.623	-42.28
534.397	-27.94
535.171	-20.76
535.944	-23.83
536.718	-51.51
537.491	-19.73
538.265	-40.24
539.038	-42.28
539.811	-49.46
540.584	-55.61
541.357	-63.81
542.13	-72
542.903	-78.15
543.676	-70.98
544.449	-70.98
545.221	-66.88
545.994	-54.59
546.766	-37.16
547.539	-53.56
548.311	-74.06
549.083	-23.83
549.855	-44.34
550.627	-44.33
551.399	-41.26
552.171	-50.48
552.943	-38.18
553.715	-17.68
554.486	-29.98
555.258	-29.99
556.029	-20.76
556.801	-4.36
557.572	-32.04
558.343	-14.61
559.114	-32.03
559.886	-31.01
560.657	-19.73
561.427	-23.84
562.198	-29.99
562.969	-25.88
563.74	-20.76
564.51	-18.71
565.281	-34.08
566.051	-21.78
566.822	-28.96
567.592	-19.73
568.362	-16.66
569.132	-35.11
569.902	-2.31
570.672	-19.73
571.442	-28.96
572.212	-15.63
572.982	-1.28
573.751	-33.06
574.521	-26.91
575.29	-31
576.06	-47.41
576.829	-37.16
577.598	-27.93
578.367	-40.24
579.136	-33.06
579.905	-33.06
580.674	-25.88
581.443	-41.26
582.212	-49.46
582.981	-60.73
583.749	-36.14
584.518	-33.06
585.286	-28.95
586.054	-45.35
586.823	-44.33
587.591	-42.29
588.359	-47.4
589.127	-42.28
589.895	-36.13
590.663	-54.58
591.431	-49.46
592.198	-45.36
592.966	-31.01
593.734	-37.15
594.501	-17.68
595.268	-11.53
596.036	-27.93
596.803	-22.81
597.57	-29.98
598.337	-13.58
599.104	-47.41
599.871	-42.28
600.638	-21.78
601.405	-10.51
602.171	1.79
602.938	-15.63
603.704	-4.36
604.471	-9.48
605.237	-5.38
606.004	-11.53
606.77	-25.88
607.536	-24.85
608.302	-17.68
609.068	-44.33
609.834	-48.43
610.599	-96.59
611.365	-53.56
612.131	-59.71
612.896	-41.25
613.662	-35.1
614.427	-6.41
615.193	-23.83
615.958	-21.78
616.723	-7.43
617.488	7.95
618.253	2.82
619.018	-17.68
619.783	-12.56
620.548	-14.6
621.312	-8.46
622.077	5.89
622.842	-12.56
623.606	-2.31
624.37	-13.58
625.135	3.84
625.899	-15.63
626.663	2.82
627.427	-6.41
628.191	0.77
628.955	-15.63
629.719	0.77
630.483	-25.88
631.246	-15.63
632.01	-13.58
632.773	-8.46
633.537	1.79
634.3	-4.36
635.063	5.89
635.827	8.97
636.59	-1.28
637.353	-9.48
638.116	11.02
638.879	-7.43
639.641	7.94
640.404	12.04
641.167	9.99
641.929	7.94
642.692	18.2
643.454	-8.46
644.216	4.87
644.979	-7.43
645.741	-0.26
646.503	14.09
647.265	-0.26
648.027	0.77
648.789	-0.26
649.551	8.97
650.312	-5.38
651.074	8.97
651.835	1.79
652.597	6.92
653.358	4.87
654.12	14.09
654.881	28.44
655.642	3.84
656.403	3.84
657.164	3.84
657.925	0.77
658.686	6.92
659.447	12.04
660.207	6.92
660.968	14.09
661.728	6.92
662.489	5.89
663.249	1.79
664.01	18.19
664.77	4.87
665.53	37.67
666.29	-2.31
667.05	5.89
667.81	19.22
668.57	21.27
669.329	1.79
670.089	4.87
670.849	1.79
671.608	21.27
672.368	13.07
673.127	3.84
673.886	9.99
674.646	23.32
675.405	12.04
676.164	11.02
676.923	-1.28
677.682	5.89
678.44	23.32
679.199	14.1
679.958	-19.73
680.717	14.09
681.475	11.02
682.233	9.99
682.992	14.1
683.75	2.82
684.508	-5.38
685.266	9.99
686.024	8.97
686.782	4.87
687.54	3.84
688.298	-15.63
689.056	7.94
689.814	7.94
690.571	4.87
691.329	15.12
692.086	19.22
692.843	15.12
693.601	27.42
694.358	3.84
695.115	15.12
695.872	14.1
696.629	1.79
697.386	6.92
698.143	24.34
698.9	-3.33
699.656	22.3
700.413	1.79
701.169	16.14
701.926	3.84
702.682	7.94
703.438	16.15
704.195	11.02
704.951	-7.43
705.707	-13.58
706.463	1.79
707.219	4.87
707.974	-21.78
708.73	-15.63
709.486	-3.33
710.241	-7.43
710.997	0.77
711.752	-17.68
712.508	15.12
713.263	1.79
714.018	25.37
714.773	3.84
715.528	12.04
716.283	9.99
717.038	0.77
717.793	-7.43
718.548	-3.33
719.303	-1.28
720.057	-14.61
720.812	-8.46
721.566	-0.26
722.321	-16.66
723.075	11.02
723.829	-7.43
724.583	-2.31
725.337	-7.43
726.091	-16.66
726.845	-10.51
727.599	-5.38
728.353	-3.33
729.106	-23.84
729.86	-11.53
730.614	-14.61
731.367	123.73
732.12	-3.33
732.874	-9.48
733.627	-0.26
734.38	-14.61
735.133	-12.56
735.886	1.79
736.639	-7.43
737.392	-13.58
738.145	-9.48
738.897	-4.36
739.65	3.84
740.403	-7.43
741.155	-10.51
741.907	-2.31
742.66	-18.7
743.412	-8.46
744.164	-8.46
744.916	-1.28
745.668	-25.88
746.42	-31
747.172	-3.33
747.924	-17.68
748.676	-18.71
749.427	-12.56
750.179	-12.56
750.93	-2.31
751.682	-12.56
752.433	-16.66
753.184	-22.8
753.935	-15.63
754.687	-8.46
755.438	-0.26
756.189	-13.58
756.939	-19.73
757.69	-8.46
758.441	-3.33
759.192	-23.83
759.942	-9.48
760.693	-11.53
761.443	-18.71
762.194	-21.78
762.944	-12.56
763.694	-33.06
764.444	-3.33
765.194	-14.61
765.944	-26.91
766.694	-8.46
767.444	-6.41
768.194	-8.46
768.943	-21.79
769.693	-19.73
770.443	-19.73
771.192	-50.48
771.941	-13.58
772.691	-33.06
773.44	-23.83
774.189	-13.58
774.938	-25.88
775.687	-18.71
776.436	-22.81
777.185	-28.96
777.934	-41.26
778.683	-19.73
779.431	-13.58
780.18	-29.98
780.928	-17.68
781.677	-31.01
782.425	-16.66
783.173	-39.21
783.922	-28.96
784.67	-21.78
785.418	-25.88
786.166	-19.73
786.914	-0.26
787.661	-25.88
788.409	-36.13
789.157	-9.48
789.904	-18.71
790.652	-14.61
791.399	-20.76
792.147	-14.61
792.894	-10.51
793.641	-25.88
794.388	97.39
795.136	1.79
795.883	12.05
796.629	-13.58
797.376	-36.14
798.123	-23.83
798.87	-19.73
799.616	-25.88
800.363	-25.88
801.109	-24.85
801.856	-19.73
802.602	-20.76
803.349	-12.56
804.095	-27.93
804.841	-31.01
805.587	-20.76
806.333	-25.88
807.079	-16.66
807.825	-9.48
808.57	-36.13
809.316	-28.95
810.062	-27.93
810.807	-16.66
811.553	-19.73
812.298	-29.98
813.043	-24.86
813.788	-18.71
814.534	-15.63
815.279	-21.78
816.024	-34.08
816.769	-11.53
817.514	-17.68
818.258	-25.88
819.003	-21.78
819.748	-505.96
820.492	-12.56
821.237	-90.89
821.981	-3.33
822.726	-25.88
823.47	-24.85
824.214	-11.53
824.958	-31.01
825.702	-46.38
826.446	-42.28
827.19	-10.51
827.934	-31
828.678	-8.46
829.421	-15.63
830.165	-40.23
830.909	-7.43
831.652	-28.96
832.395	-27.93
833.139	-20.76
833.882	-25.88
834.625	-12.56
835.368	-16.66
836.111	-11.53
836.854	-46.38
837.597	-17.68
838.34	-32.03
839.083	-2.31
839.825	-35.1
840.568	-7.43
841.311	-17.68
842.053	-26.91
842.795	-14.61
843.538	-23.83
844.28	-20.76
845.022	-10.51
845.764	-5.38
846.506	-13.58
847.248	-37.16
847.99	-32.03
848.732	-19.73
849.474	-13.58
850.215	-13.58
850.957	-35.11
851.698	-23.83
852.44	-31.01
853.181	-16.66
853.922	-24.85
854.664	-13.58
855.405	-14.6
856.146	-23.84
856.887	-15.63
857.628	-24.85
858.369	-11.53
859.109	-22.8
859.85	-16.66
860.591	-10.51
861.331	-33.06
862.072	-10.51
862.812	-24.86
863.553	-12.56
864.293	-33.06
865.033	-16.66
865.773	-6.41
866.513	-13.58
867.253	-16.66
867.993	-8.46
868.733	-35.11
869.473	-34.08
870.213	-42.28
870.952	-23.84
871.692	-18.71
872.431	1.79
873.171	-31.01
873.91	-1.28
874.649	-4.36
875.388	-23.83
876.128	-25.88
876.867	-20.76
877.606	-28.96
878.345	-20.76
879.083	-1.28
879.822	-21.78
880.561	-27.93
881.299	-29.98
882.038	-16.66
882.777	-4.36
883.515	-18.71
884.253	-56.99
884.992	-40.24
885.73	-12.56
886.468	-10.51
887.206	-6.41
887.944	-25.88
888.682	-22.81
889.42	-23.83
890.157	-3.33
890.895	-4.36
891.633	-51.46
892.37	-32.03
893.108	-26.91
893.845	-24.86
894.583	-19.73
895.32	-11.53
896.057	-1.28
896.794	-7.43
897.531	-33.06
898.268	-20.76
899.005	-25.89
899.742	-12.56
900.479	-16.66
901.215	-16.66
901.952	-25.88
902.689	-31.01
903.425	-12.56
904.162	-7.43
904.898	-27.93
905.634	-8.46
906.37	-12.56
907.106	-6.41
907.843	-23.83
908.579	-16.66
909.314	-16.66
910.05	-20.76
910.786	-27.93
911.522	-22.81
912.257	-54.58
912.993	-7.43
913.728	-10.51
914.464	-26.91
915.199	-7.43
915.935	-12.56
916.67	-25.88
917.405	-27.93
918.14	-26.91
918.875	-10.51
919.61	-16.66
920.345	-10.51
921.08	-33.05
921.814	-16.66
922.549	-17.68
923.284	-40.23
924.018	-12.56
924.752	-29.98
925.487	-33.06
926.221	-25.88
926.955	-23.83
927.69	-15.63
928.424	-8.46
929.158	-27.93
929.892	-22.81
930.625	-10.51
931.359	-10.51
932.093	-7.43
932.827	-10.51
933.56	-25.88
934.294	-15.63
935.027	-10.51
935.761	-22.81
936.494	-18.71
937.227	-27.93
937.96	-24.86
938.693	-20.76
939.426	-15.63
940.159	-36.13
940.892	-17.68
941.625	-19.73
942.358	-28.96
943.091	-35.11
943.823	-32.04
944.556	-25.89
945.288	0.77
946.021	-25.88
946.753	-21.78
947.485	-20.76
948.217	0.77
948.95	-39.21
949.682	-7.43
950.414	-28.96
951.146	-10.51
951.877	-12.56
952.609	19.22
953.341	-17.68
954.073	-16.66
954.804	-17.68
955.536	-16.66
956.267	-32.03
956.998	-10.51
957.73	-26.91
958.461	-18.71
959.192	-9.48
959.923	-16.66
960.654	-10.51
961.385	-15.63
962.116	-20.76
962.847	-19.73
963.578	-14.61
964.308	-36.14
965.039	-14.61
965.769	-35.11
966.5	-28.96
967.23	-19.73
967.961	-12.56
968.691	-27.93
969.421	-12.56
970.151	-21.78
970.881	-42.29
971.611	-32.03
972.341	-14.61
973.071	-18.71
973.801	-19.73
974.53	-0.26
975.26	-18.71
975.99	-21.78
976.719	-33.06
977.448	-10.51
978.178	-35.11
978.907	-5.38
979.636	-17.68
980.365	-8.46
981.095	-15.63
981.824	-28.96
982.553	-25.88
983.281	-25.88
984.01	0.77
984.739	5.9
985.468	-9.49
986.196	-3.34
986.925	-34.07
987.653	-19.73
988.382	-10.51
989.11	-31.01
989.838	-7.43
990.566	-8.46
991.295	-28.96
992.023	-25.88
992.751	-12.56
993.478	-13.58
994.206	-11.53
994.934	-15.63
995.662	-2.31
996.389	5.9
997.117	-6.41
997.845	8.98
