Data from White_Subt2_002.txt Node
Date: Fri Aug 23 09:19:32 EDT 2019
User: wcc
Spectrometer: QEPB0759
Trigger mode: 0
Integration Time (sec): 1.000000E0
Scans to average: 1
Electric dark correction enabled: true
Nonlinearity correction enabled: true
Boxcar width: 0
XAxis mode: Wavelengths
Number of Pixels in Spectrum: 1044
>>>>>Begin Spectral Data<<<<<
197.938	27.03
198.749	16.78
199.559	16.79
200.369	27.04
201.179	23.96
201.988	19.86
202.798	21.91
203.608	-14.99
204.417	7.56
205.227	35.24
206.036	9.61
206.846	13.71
207.655	10.63
208.464	6.53
209.273	13.71
210.082	21.91
210.891	18.84
211.7	18.84
212.508	0.38
213.317	14.74
214.125	19.86
214.934	27.04
215.742	22.94
216.55	23.96
217.359	12.69
218.167	31.14
218.975	13.71
219.782	20.89
220.59	10.64
221.398	15.76
222.206	19.86
223.013	13.71
223.82	16.79
224.628	13.71
225.435	38.31
226.242	18.83
227.049	3.46
227.856	21.91
228.663	29.08
229.47	17.81
230.277	29.09
231.083	15.76
231.89	10.64
232.696	22.93
233.502	21.91
234.309	3.46
235.115	15.76
235.921	23.96
236.727	26.01
237.533	-0.64
238.339	-1.67
239.144	10.63
239.95	22.93
240.756	20.88
241.561	13.71
242.366	5.51
243.172	22.93
243.977	24.98
244.782	4.48
245.587	30.11
246.392	27.03
247.197	23.96
248.001	10.64
248.806	30.11
249.611	12.69
250.415	36.26
251.219	21.91
252.024	10.63
252.828	30.11
253.632	31.14
254.436	35.24
255.24	10.63
256.044	41.38
256.848	23.96
257.651	14.74
258.455	16.78
259.258	19.86
260.062	1782.05
260.865	19.86
261.668	38.31
262.471	22.94
263.274	11.66
264.077	18.84
264.88	31.14
265.683	27.04
266.486	40.36
267.288	14.73
268.091	45.49
268.893	-11.92
269.696	20.88
270.498	15.76
271.3	9.61
272.102	13.71
272.904	6.53
273.706	21.91
274.508	29.09
275.309	10.63
276.111	37.29
276.913	44.47
277.714	26.01
278.515	13.71
279.317	33.18
280.118	35.24
280.919	15.76
281.72	43.44
282.521	14.73
283.322	26.01
284.122	23.96
284.923	35.23
285.724	23.96
286.524	26.01
287.325	12.68
288.125	7.56
288.925	5.51
289.725	4.48
290.525	24.98
291.325	20.88
292.125	31.13
292.925	26.01
293.724	33.19
294.524	21.91
295.324	32.16
296.123	0.38
296.922	21.91
297.722	36.25
298.521	27.03
299.32	30.11
300.119	18.84
300.918	15.76
301.716	49.58
302.515	22.94
303.314	10.63
304.112	5.51
304.911	21.91
305.709	34.21
306.507	27.03
307.306	6.53
308.104	30.11
308.902	24.99
309.7	19.86
310.498	16.78
311.295	17.81
312.093	22.93
312.891	16.78
313.688	23.96
314.485	37.29
315.283	26.01
316.08	20.88
316.877	-1.67
317.674	21.91
318.471	6.54
319.268	13.71
320.065	11.66
320.862	-0.64
321.658	34.21
322.455	48.56
323.251	15.76
324.047	14.74
324.844	13.71
325.64	15.76
326.436	41.38
327.232	6.53
328.028	26.01
328.824	35.24
329.62	24.98
330.415	20.88
331.211	24.98
332.006	22.94
332.802	15.76
333.597	24.99
334.392	24.98
335.187	36.26
335.982	44.46
336.777	35.23
337.572	9.61
338.367	19.86
339.162	21.91
339.956	31.14
340.751	26.01
341.545	29.08
342.34	18.83
343.134	40.36
343.928	23.96
344.722	35.23
345.516	22.94
346.31	13.71
347.104	5.51
347.898	21.91
348.691	23.96
349.485	29.09
350.278	8.58
351.072	18.83
351.865	-425.4
352.658	26.01
353.452	32.16
354.245	30.11
355.038	27.04
355.83	29.09
356.623	22.94
357.416	17.81
358.209	39.34
359.001	20.89
359.794	21.91
360.586	15.76
361.378	23.96
362.17	30.11
362.963	24.99
363.755	38.3
364.546	12.69
365.338	28.06
366.13	23.96
366.922	20.88
367.713	23.96
368.505	26.01
369.296	40.36
370.088	57.79
370.879	28.06
371.67	33.18
372.461	57.79
373.252	61.88
374.043	55.73
374.834	51.64
375.625	82.38
376.415	82.37
377.206	72.13
377.996	116.21
378.787	121.31
379.577	154.13
380.367	197.19
381.157	227.89
381.947	269.92
382.737	319.08
383.527	360.04
384.317	426.58
385.107	485.05
385.896	549.45
386.686	646.75
387.475	736.8
388.265	861.76
389.054	965.71
389.843	1101.12
390.632	1232.97
391.421	1372.99
392.21	1532.38
392.999	1700.14
393.788	1870.54
394.576	2077.64
395.365	2262.29
396.154	2505.21
396.942	2691.85
397.73	2912.7
398.519	3112.31
399.307	3318.87
400.095	3513.11
400.883	3735.35
401.671	3937.2
402.459	4181.97
403.246	4419.88
404.034	4668.47
404.822	4896.55
405.609	5130.21
406.396	5350.92
407.184	5540.65
407.971	5685.5
408.758	5793.87
409.545	5918.01
410.332	6028.44
411.119	6189.52
411.906	6351.3
412.693	6548.42
413.479	6799.93
414.266	7104.7
415.052	7454.19
415.839	7859.2
416.625	8292.84
417.411	8810.39
418.197	9233.08
418.983	9697
419.769	9889.14
420.555	9892.71
421.341	9797.41
422.127	9684.5
422.912	9611.37
423.698	9512.51
424.483	9529.85
425.269	9624.72
426.054	9701.92
426.839	9954.64
427.624	10177.78
428.409	10524.97
429.194	10869.35
429.979	11284.54
430.764	11729.78
431.549	12120.1
432.333	12468.79
433.118	12814.85
433.902	13081.79
434.687	13330.76
435.471	13524.18
436.255	13733.83
437.039	13960.11
437.823	14203.35
438.607	14270.86
439.391	14271.88
440.175	14319.23
440.958	14356.98
441.742	14523.63
442.526	14726.87
443.309	14854.94
444.092	15106.71
444.876	15236.84
445.659	15408.11
446.442	15704.99
447.225	15995.02
448.008	16554.21
448.791	17822.1
449.573	19535.23
450.356	19796.4
451.139	19260.24
451.921	19615.9
452.704	19504.91
453.486	19151.37
454.268	19550.93
455.05	20124.26
455.833	20808.67
456.615	21605.9
457.396	22341.5
458.178	22840.87
458.96	22899.03
459.742	23093.11
460.523	23509.99
461.305	24239.98
462.086	25122.62
462.868	25570.74
463.649	25529.54
464.43	25326.37
465.211	25578.42
465.992	26920.77
466.773	29141.45
467.554	30868.81
468.335	31103.96
469.115	30349.11
469.896	29503.04
470.676	28814.57
471.457	28874.38
472.237	30856.26
473.018	32872.52
473.798	31240.36
474.578	28905.04
475.358	28234.88
476.138	28051.45
476.918	28080.06
477.697	28443.31
478.477	29039.37
479.257	30016.68
480.036	31753.34
480.816	33367.68
481.595	33973.09
482.374	34178.81
483.153	34143.34
483.932	33780.07
484.711	33273.51
485.49	33046.85
486.269	33132.44
487.048	33484.97
487.827	34138.54
488.605	34742.43
489.384	35528.48
490.162	36846.78
490.941	39267.13
491.719	41582.41
492.497	41988.31
493.275	41368.9
494.053	40672.92
494.831	40093.6
495.609	39898.02
496.387	39730.39
497.164	39847.64
497.942	39943.89
498.72	40148.29
499.497	40363.85
500.274	40663.64
501.052	40941.97
501.829	41327.34
502.606	41751.92
503.383	41983.19
504.16	42200.67
504.937	42259.4
505.714	42383.2
506.49	42670.78
507.267	42982.94
508.043	43291
508.82	43568.53
509.596	43878.71
510.373	44313.24
511.149	44894.48
511.925	45394.87
512.701	45861.25
513.477	46242.01
514.253	46606.18
515.029	46988.82
515.804	47385.14
516.58	47845.17
517.356	48226.03
518.131	48722.44
518.906	49245.46
519.682	49559.1
520.457	50021.88
521.232	50405.35
522.007	50620.82
522.782	50970.94
523.557	51317.43
524.332	51543.26
525.107	51759.3
525.881	51973.67
526.656	52074.23
527.43	52280.84
528.205	52440.26
528.979	52488.26
529.753	52326.52
530.527	52205.02
531.302	51997.88
532.076	51943.6
532.849	51847.19
533.623	51706.16
534.397	51516.05
535.171	51186.27
535.944	50976.77
536.718	50808.2
537.491	50613.48
538.265	50383.98
539.038	50352.98
539.811	50232.06
540.584	50357.4
541.357	50389.6
542.13	50264.93
542.903	50163.04
543.676	49887.95
544.449	49980.68
545.221	49909.76
545.994	49991.46
546.766	49870.2
547.539	49816.32
548.311	49801.27
549.083	49924.82
549.855	49847.94
550.627	50085.32
551.399	50239.37
552.171	50535.72
552.943	50731.48
553.715	51019.25
554.486	51189.33
555.258	51533.17
556.029	51886.81
556.801	52260.19
557.572	52500.45
558.343	52979.9
559.114	53238.18
559.886	53674.25
560.657	54076.5
561.427	54395.83
562.198	54670.06
562.969	55008.74
563.74	55298.34
564.51	55384.09
565.281	55616.49
566.051	55736.43
566.822	55912.24
567.592	55867.21
568.362	55899.96
569.132	55810.95
569.902	55627.63
570.672	55346.48
571.442	55030.02
572.212	54789.72
572.982	54597.7
573.751	54346.3
574.521	54056.16
575.29	53810.45
576.06	53575.77
576.829	53263.04
577.598	52941.23
578.367	52657.06
579.136	52491.14
579.905	52297.26
580.674	52186.63
581.443	51963.18
582.212	51970.95
582.981	51862.06
583.749	51921.78
584.518	51897.07
585.286	51878.98
586.054	51807.67
586.823	51795.69
587.591	51876.33
588.359	51930.61
589.127	51862.32
589.895	51743.6
590.663	51742.51
591.431	51703.55
592.198	51639.86
592.966	51592.41
593.734	51344.41
594.501	51206.3
595.268	51074.11
596.036	50801.32
596.803	50584
597.57	50295.25
598.337	49950.38
599.104	49647.63
599.871	49349.72
600.638	49056.4
601.405	48650.96
602.171	48331.26
602.938	48101.23
603.704	47764.72
604.471	47506.5
605.237	47169.53
606.004	46979.38
606.77	46738
607.536	46643.98
608.302	46531.7
609.068	46484.1
609.834	46203.9
610.599	46353.16
611.365	46327.01
612.131	46375.84
612.896	46375.69
613.662	46359.71
614.427	46351.74
615.193	46183.11
615.958	46052.38
616.723	45966.65
617.488	45740.73
618.253	45664.72
619.018	45514.74
619.783	45283.1
620.548	45078.66
621.312	44959.18
622.077	44821.4
622.842	44616.55
623.606	44389.35
624.37	44133.53
625.135	43791.92
625.899	43545.37
626.663	43208
627.427	42751.9
628.191	42442.93
628.955	42206.55
629.719	41999.05
630.483	41551.01
631.246	41187.68
632.01	40819.64
632.773	40413.76
633.537	39885.7
634.3	39389.02
635.063	38978.4
635.827	38594.65
636.59	38031.13
637.353	37494.58
638.116	37168.93
638.879	36683.85
639.641	36208.7
640.404	35848.26
641.167	35438.77
641.929	34986.11
642.692	34663.76
643.454	34158.53
644.216	33922.65
644.979	33630.57
645.741	33288.68
646.503	33139.1
647.265	32881.49
648.027	32607.69
648.789	32364.52
649.551	32101.93
650.312	31481.6
651.074	30890.16
651.835	30269.12
652.597	29883.71
653.358	29577.17
654.12	29243.63
654.881	28919.2
655.642	28722.28
656.403	28499.68
657.164	28246.08
657.925	28202.24
658.686	28084.5
659.447	27994.1
660.207	27917.1
660.968	27954.69
661.728	27946.91
662.489	27969.18
663.249	28015.62
664.01	28079.76
664.77	28166.15
665.53	28182.41
666.29	28256.68
667.05	28295.59
667.81	28380.39
668.57	28403.98
669.329	28450.92
670.089	28526.24
670.849	28615.68
671.608	28748.73
672.368	28663.29
673.127	28612.59
673.886	28605.91
674.646	28559.46
675.405	28430.28
676.164	28422.32
676.923	28139.55
677.682	27924.43
678.44	27825.42
679.199	27767.99
679.958	27604.62
680.717	27709.56
681.475	28145.1
682.233	28871.95
682.992	28863.94
683.75	28201.25
684.508	27423.07
685.266	26820.83
686.024	26279.46
686.782	25902.5
687.54	25649.59
688.298	25168.9
689.056	24718.85
689.814	24271.15
690.571	23751.29
691.329	23221.32
692.086	22655.81
692.843	22161.96
693.601	21796.76
694.358	21269.44
695.115	20863.9
695.872	20433.91
696.629	20081.5
697.386	19817.74
698.143	19511.16
698.9	19220.01
699.656	19044.86
700.413	18823.98
701.169	18712.16
701.926	18506.69
702.682	18307.17
703.438	18143.47
704.195	17961.19
704.951	17719.57
705.707	17735.15
706.463	17631.67
707.219	17542.05
707.974	17530.03
708.73	17477.15
709.486	17431.33
710.241	17360.06
710.997	17262.87
711.752	17176.08
712.508	16855.34
713.263	16471.68
714.018	16111.4
714.773	15668.87
715.528	15179.77
716.283	14655.73
717.038	14159.54
717.793	13677.33
718.548	13171.75
719.303	12642.2
720.057	12095.68
720.812	11591.26
721.566	11200.65
722.321	10812.79
723.075	10497.98
723.829	10184.4
724.583	9976.7
725.337	9753.27
726.091	9574.08
726.845	9493.22
727.599	9349.84
728.353	9193.62
729.106	9007.49
729.86	8912.79
730.614	8923.72
731.367	9091.35
732.12	8993.7
732.874	8825.09
733.627	8450.53
734.38	7983.82
735.133	7567.63
735.886	7222.91
736.639	6976.3
737.392	6795.29
738.145	6681.92
738.897	6612.84
739.65	6491.29
740.403	6387.82
741.155	6193.47
741.907	5869.93
742.66	5449.97
743.412	4897.17
744.164	4218.45
744.916	3483.38
745.668	2592.74
746.42	1747.67
747.172	1065.3
747.924	540.3
748.676	301.7
749.427	208.43
750.179	155.13
750.93	155.14
751.682	139.79
752.433	116.19
753.184	107.98
753.935	110.06
754.687	110.06
755.438	100.82
756.189	85.46
756.939	93.66
757.69	93.66
758.441	96.73
759.192	86.48
759.942	87.5
760.693	79.3
761.443	81.35
762.194	79.31
762.944	91.62
763.694	85.45
764.444	99.81
765.194	97.75
765.944	67.01
766.694	69.05
767.444	65.98
768.194	71.1
768.943	67.02
769.693	45.48
770.443	63.93
771.192	37.28
771.941	66
772.691	48.56
773.44	46.51
774.189	57.78
774.938	46.51
775.687	46.51
776.436	42.41
777.185	52.66
777.934	48.56
778.683	49.58
779.431	58.81
780.18	48.56
780.928	64.96
781.677	40.36
782.425	42.41
783.173	40.36
783.922	53.68
784.67	57.77
785.418	51.63
786.166	60.85
786.914	62.91
787.661	40.36
788.409	47.53
789.157	51.64
789.904	40.36
790.652	52.66
791.399	34.21
792.147	39.33
792.894	54.71
793.641	53.68
794.388	239.38
795.136	42.41
795.883	61.89
796.629	35.23
797.376	21.91
798.123	42.41
798.87	43.44
799.616	24.99
800.363	40.35
801.109	29.08
801.856	29.08
802.602	34.22
803.349	31.13
804.095	34.2
804.841	13.71
805.587	39.33
806.333	24.98
807.079	19.86
807.825	34.21
808.57	29.08
809.316	38.3
810.062	11.66
810.807	30.11
811.553	39.33
812.298	21.91
813.043	29.08
813.788	28.06
814.534	30.11
815.279	27.03
816.024	15.76
816.769	37.28
817.514	26.01
818.258	24.98
819.003	29.08
819.748	-431.06
820.492	21.91
821.237	-163.59
821.981	27.04
822.726	19.86
823.47	21.91
824.214	23.96
824.958	7.56
825.702	-0.64
826.446	12.68
827.19	28.06
827.934	13.71
828.678	39.33
829.421	28.06
830.165	11.66
830.909	29.08
831.652	5.51
832.395	13.71
833.139	26.01
833.882	5.51
834.625	20.88
835.368	9.61
836.111	18.84
836.854	-0.64
837.597	9.61
838.34	12.68
839.083	22.93
839.825	2.43
840.568	20.89
841.311	8.58
842.053	19.86
842.795	20.89
843.538	16.78
844.28	15.76
845.022	22.94
845.764	10.63
846.506	17.81
847.248	3.46
847.99	3.46
848.732	27.03
849.474	0.38
850.215	11.66
850.957	8.59
851.698	13.71
852.44	22.93
853.181	5.51
853.922	9.61
854.664	22.94
855.405	16.78
856.146	5.51
856.887	15.76
857.628	12.68
858.369	17.81
859.109	4.48
859.85	13.71
860.591	24.98
861.331	0.38
862.072	12.69
862.812	15.76
863.553	21.91
864.293	-2.69
865.033	9.61
865.773	15.76
866.513	12.69
867.253	22.94
867.993	10.64
868.733	-4.74
869.473	-5.77
870.213	-11.91
870.952	9.61
871.692	-8.84
872.431	0.38
873.171	15.76
873.91	21.91
874.649	20.89
875.388	12.68
876.128	1.41
876.867	5.51
877.606	2.43
878.345	2.43
879.083	3.46
879.822	-9.87
880.561	-6.79
881.299	3.46
882.038	6.53
882.777	30.11
883.515	8.58
884.253	411.52
884.992	-5.77
885.73	15.76
886.468	15.76
887.206	1.41
887.944	2.43
888.682	-6.79
889.42	10.63
890.157	1.41
890.895	5.51
891.633	-17.02
892.37	-6.79
893.108	-5.77
893.845	-6.79
894.583	0.38
895.32	5.51
896.057	1.41
896.794	2.43
897.531	-13.97
898.268	-3.72
899.005	0.38
899.742	7.56
900.479	-9.87
901.215	2.43
901.952	9.61
902.689	-9.87
903.425	9.61
904.162	9.61
904.898	-8.84
905.634	6.53
906.37	-6.79
907.106	13.71
907.843	0.38
908.579	-0.64
909.314	0.38
910.05	5.51
910.786	-14.99
911.522	0.38
912.257	-23.19
912.993	7.56
913.728	1.41
914.464	-22.17
915.199	-7.82
915.935	-3.72
916.67	-13.97
917.405	-8.84
918.14	-16.02
918.875	7.56
919.61	3.46
920.345	-11.92
921.08	-19.09
921.814	-16.02
922.549	2.43
923.284	-10.89
924.018	-4.74
924.752	-13.96
925.487	-4.74
926.221	-1.67
926.955	-1.67
927.69	5.51
928.424	6.53
929.158	-5.77
929.892	1.41
930.625	12.68
931.359	-4.74
932.093	8.58
932.827	4.48
933.56	-4.74
934.294	-0.64
935.027	-4.74
935.761	-4.74
936.494	-3.72
937.227	-18.07
937.96	-6.79
938.693	-11.92
939.426	0.38
940.159	-27.29
940.892	0.38
941.625	-12.94
942.358	-10.89
943.091	-14.99
943.823	-4.74
944.556	-7.82
945.288	19.86
946.021	5.51
946.753	10.64
947.485	-13.97
948.217	15.76
948.95	-20.12
949.682	-5.77
950.414	-13.97
951.146	-12.94
951.877	12.69
952.609	29.09
953.341	-2.69
954.073	-17.04
954.804	-0.64
955.536	-10.89
956.267	-8.84
956.998	0.38
957.73	-30.37
958.461	-11.92
959.192	4.49
959.923	-1.67
960.654	6.53
961.385	13.71
962.116	-7.82
962.847	2.43
963.578	-3.72
964.308	-12.94
965.039	-12.94
965.769	-10.89
966.5	9.61
967.23	-1.67
967.961	-6.79
968.691	-9.87
969.421	-9.87
970.151	-26.27
970.881	-10.89
971.611	-7.82
972.341	-6.79
973.071	-6.79
973.801	5.51
974.53	-0.64
975.26	-19.09
975.99	-8.84
976.719	-3.72
977.448	6.54
978.178	-27.29
978.907	4.48
979.636	-6.79
980.365	-9.87
981.095	-2.69
981.824	-13.97
982.553	-8.84
983.281	-5.77
984.01	-3.72
984.739	4.49
985.468	-3.72
986.196	-4.75
986.925	14.73
987.653	2.43
988.382	21.91
989.11	0.38
989.838	32.16
990.566	33.18
991.295	-18.07
992.023	3.46
992.751	-8.84
993.478	6.53
994.206	-1.67
994.934	-17.04
995.662	2.44
996.389	1.41
997.117	-10.9
997.845	14.75
