Data from White_Bg_Subt2_003.txt Node
Date: Fri Aug 23 09:20:45 EDT 2019
User: wcc
Spectrometer: QEPB0759
Trigger mode: 0
Integration Time (sec): 1.000000E0
Scans to average: 1
Electric dark correction enabled: true
Nonlinearity correction enabled: true
Boxcar width: 0
XAxis mode: Wavelengths
Number of Pixels in Spectrum: 1044
>>>>>Begin Spectral Data<<<<<
197.938	-19.35
198.749	-10.12
199.559	-10.12
200.369	-14.22
201.179	-20.37
201.988	-26.52
202.798	-14.22
203.608	-20.37
204.417	-33.7
205.227	0.13
206.036	-16.27
206.846	-32.67
207.655	-23.45
208.464	-24.47
209.273	-6.02
210.082	-13.2
210.891	-14.22
211.7	-11.15
212.508	-27.55
213.317	-16.27
214.125	-14.22
214.934	-11.15
215.742	-21.4
216.55	-6.02
217.359	-20.38
218.167	-10.12
218.975	-39.85
219.782	-5
220.59	-24.48
221.398	-18.33
222.206	-19.34
223.013	-16.27
223.82	-21.4
224.628	-21.4
225.435	-13.2
226.242	-28.57
227.049	-25.5
227.856	-8.07
228.663	-10.12
229.47	-13.2
230.277	-11.15
231.083	-11.15
231.89	-12.17
232.696	-31.65
233.502	-11.15
234.309	-26.53
235.115	-23.45
235.921	-16.27
236.727	-24.48
237.533	-33.7
238.339	-48.05
239.144	-20.37
239.95	-15.24
240.756	-22.42
241.561	-27.55
242.366	-28.58
243.172	-9.1
243.977	-6.02
244.782	-33.7
245.587	-11.15
246.392	-14.22
247.197	-7.05
248.001	-19.35
248.806	-13.2
249.611	-12.17
250.415	-7.05
251.219	-21.4
252.024	-19.35
252.828	-9.1
253.632	-12.17
254.436	-0.9
255.24	-29.6
256.044	0.13
256.848	-18.32
257.651	-26.53
258.455	-31.65
259.258	-30.62
260.062	-224.05
260.865	-22.42
261.668	-15.25
262.471	-24.47
263.274	-23.45
264.077	-11.15
264.88	-34.73
265.683	-16.27
266.486	-14.22
267.288	-10.12
268.091	1.15
268.893	-43.95
269.696	-22.42
270.498	-16.27
271.3	-32.67
272.102	-11.15
272.904	-22.42
273.706	-10.12
274.508	-20.37
275.309	-33.7
276.111	2.18
276.913	4.23
277.714	-18.33
278.515	-27.55
279.317	-18.32
280.118	-3.97
280.919	-29.6
281.72	-14.22
282.521	-40.87
283.322	-16.27
284.122	-13.2
284.923	-26.52
285.724	-28.58
286.524	-20.37
287.325	-25.5
288.125	-39.85
288.925	-25.5
289.725	-38.82
290.525	-10.12
291.325	-15.25
292.125	-25.5
292.925	-26.52
293.724	-19.35
294.524	-34.73
295.324	-12.17
296.123	-34.72
296.922	-23.45
297.722	-9.09
298.521	-25.5
299.32	-18.32
300.119	-27.55
300.918	-16.27
301.716	-16.27
302.515	-32.68
303.314	-18.32
304.112	-43.95
304.911	-28.57
305.709	-18.32
306.507	-37.8
307.306	-20.37
308.104	-22.42
308.902	-23.45
309.7	-29.6
310.498	-26.52
311.295	-21.4
312.093	-22.42
312.891	-26.52
313.688	-14.22
314.485	-15.25
315.283	-11.15
316.08	-18.32
316.877	-13.2
317.674	-28.58
318.471	-36.78
319.268	-16.27
320.065	-15.25
320.862	-28.57
321.658	-2.95
322.455	1.15
323.251	-23.45
324.047	-21.4
324.844	-18.32
325.64	-20.38
326.436	-28.57
327.232	-23.45
328.028	-17.3
328.824	-17.3
329.62	-22.42
330.415	-27.54
331.211	-15.25
332.006	-26.52
332.802	-14.22
333.597	-23.45
334.392	-11.15
335.187	-17.3
335.982	7.3
336.777	-5
337.572	-27.55
338.367	-15.25
339.162	-10.12
339.956	-3.97
340.751	-14.22
341.545	-33.7
342.34	-26.52
343.134	-5
343.928	-22.42
344.722	-11.15
345.516	-27.55
346.31	-26.52
347.104	-15.25
347.898	-23.45
348.691	-26.52
349.485	1.15
350.278	-36.77
351.072	-18.32
351.865	-497.67
352.658	0.13
353.452	-28.57
354.245	-25.5
355.038	-28.57
355.83	-3.97
356.623	-27.55
357.416	-21.4
358.209	-8.07
359.001	-15.25
359.794	-17.3
360.586	-34.72
361.378	-16.27
362.17	-23.45
362.963	-34.73
363.755	-21.4
364.546	-25.5
365.338	-0.9
366.13	-23.45
366.922	-31.65
367.713	-22.42
368.505	-17.3
369.296	-20.37
370.088	-20.38
370.879	-27.55
371.67	-29.6
372.461	-16.27
373.252	-23.45
374.043	-17.3
374.834	-20.38
375.625	-25.5
376.415	-24.47
377.206	-21.4
377.996	-24.47
378.787	-22.42
379.577	-30.63
380.367	-20.38
381.157	-5
381.947	-19.35
382.737	-14.22
383.527	-14.22
384.317	-19.35
385.107	-10.12
385.896	-35.75
386.686	-28.57
387.475	-29.6
388.265	-24.48
389.054	-26.51
389.843	-10.12
390.632	-18.32
391.421	-34.72
392.21	-36.77
392.999	-10.12
393.788	-2.95
394.576	-12.17
395.365	-24.47
396.154	-13.2
396.942	-24.48
397.73	-29.6
398.519	-20.37
399.307	-10.12
400.095	-26.52
400.883	-19.35
401.671	-17.3
402.459	-16.27
403.246	-24.47
404.034	-30.63
404.822	-23.45
405.609	-29.6
406.396	-13.2
407.184	-13.2
407.971	-20.37
408.758	-20.37
409.545	-15.25
410.332	-40.87
411.119	-17.3
411.906	-23.45
412.693	-18.32
413.479	-12.17
414.266	-21.4
415.052	-10.12
415.839	-11.15
416.625	-31.65
417.411	-9.1
418.197	-17.3
418.983	-29.59
419.769	-17.3
420.555	-23.45
421.341	-13.2
422.127	-24.47
422.912	-31.65
423.698	-25.5
424.483	-35.75
425.269	-21.4
426.054	-37.8
426.839	-27.55
427.624	-9.1
428.409	-36.78
429.194	-15.25
429.979	-1.92
430.764	2.18
431.549	-11.15
432.333	-21.4
433.118	-19.35
433.902	-36.77
434.687	-56.25
435.471	-59.32
436.255	-38.82
437.039	-20.37
437.823	-30.62
438.607	-18.32
439.391	-36.77
440.175	-28.57
440.958	-24.47
441.742	-30.62
442.526	-18.33
443.309	-26.52
444.092	-27.55
444.876	-11.15
445.659	-29.6
446.442	-36.77
447.225	-20.37
448.008	-40.87
448.791	-19.35
449.573	-22.42
450.356	-18.32
451.139	-26.52
451.921	-30.63
452.704	-14.22
453.486	-22.42
454.268	-28.57
455.05	-11.15
455.833	-18.32
456.615	-20.37
457.396	-19.35
458.178	-20.37
458.96	-17.3
459.742	-15.25
460.523	-27.55
461.305	-13.2
462.086	-20.37
462.868	-26.52
463.649	-13.2
464.43	-25.5
465.211	-12.17
465.992	-19.35
466.773	-13.2
467.554	-8.07
468.335	-9.1
469.115	-22.42
469.896	-21.4
470.676	-19.35
471.457	-28.57
472.237	-14.22
473.018	-18.32
473.798	-27.55
474.578	-13.2
475.358	-15.25
476.138	-23.45
476.918	-6.02
477.697	-20.37
478.477	-10.12
479.257	-5
480.036	-22.42
480.816	-26.53
481.595	-19.35
482.374	-18.32
483.153	-31.65
483.932	-25.5
484.711	-32.67
485.49	-49.07
486.269	-30.62
487.048	-54.2
487.827	-36.77
488.605	-33.7
489.384	-33.7
490.162	-39.85
490.941	-21.4
491.719	-20.37
492.497	-42.93
493.275	-35.75
494.053	-12.17
494.831	-30.63
495.609	-16.27
496.387	-19.35
497.164	-37.8
497.942	-17.3
498.72	-12.17
499.497	-15.25
500.274	-13.2
501.052	-15.25
501.829	-11.15
502.606	-11.15
503.383	-27.55
504.16	-0.9
504.937	-16.27
505.714	-13.2
506.49	7.3
507.267	-30.63
508.043	-29.6
508.82	-24.47
509.596	-10.12
510.373	-6.02
511.149	-13.2
511.925	-15.25
512.701	1.15
513.477	-11.15
514.253	-8.07
515.029	-21.4
515.804	-20.37
516.58	-16.27
517.356	-14.22
518.131	8.33
518.906	12.43
519.682	-8.07
520.457	-22.42
521.232	-3.97
522.007	-1.92
522.782	10.38
523.557	1.15
524.332	-7.05
525.107	-12.17
525.881	-11.15
526.656	-2.95
527.43	-9.1
528.205	-9.1
528.979	-10.12
529.753	-5
530.527	1.15
531.302	-7.05
532.076	-15.25
532.849	2.18
533.623	-8.07
534.397	-10.12
535.171	-8.07
535.944	-7.05
536.718	-27.55
537.491	-15.24
538.265	-9.1
539.038	-19.35
539.811	-28.57
540.584	-37.8
541.357	-54.2
542.13	-50.09
542.903	-48.04
543.676	-52.15
544.449	-37.8
545.221	-56.24
545.994	-22.42
546.766	-40.87
547.539	-20.37
548.311	-38.82
549.083	-22.42
549.855	-19.35
550.627	-24.47
551.399	-18.32
552.171	-26.52
552.943	-8.07
553.715	-8.07
554.486	5.25
555.258	8.33
556.029	-0.9
556.801	22.68
557.572	-10.12
558.343	-0.9
559.114	2.18
559.886	12.43
560.657	9.35
561.427	-8.07
562.198	-7.05
562.969	19.6
563.74	1.15
564.51	-0.9
565.281	-11.15
566.051	14.48
566.822	12.43
567.592	1.15
568.362	-5
569.132	-7.05
569.902	12.43
570.672	-2.95
571.442	-16.27
572.212	-3.97
572.982	7.3
573.751	-9.1
574.521	3.2
575.29	-3.97
576.06	-5
576.829	-9.1
577.598	-9.1
578.367	-28.58
579.136	4.23
579.905	-19.35
580.674	-6.02
581.443	-28.57
582.212	-25.5
582.981	-28.57
583.749	2.18
584.518	-15.25
585.286	-12.17
586.054	-26.52
586.823	-21.4
587.591	-20.37
588.359	-13.2
589.127	-8.07
589.895	-11.15
590.663	-37.79
591.431	-20.37
592.198	-11.15
592.966	-11.15
593.734	-16.27
594.501	-7.05
595.268	16.53
596.036	-21.39
596.803	-2.95
597.57	0.13
598.337	-19.35
599.104	-20.37
599.871	-9.1
600.638	-17.3
601.405	-10.12
602.171	-11.15
602.938	-25.49
603.704	11.4
604.471	-16.27
605.237	3.2
606.004	-25.5
606.77	-24.47
607.536	-33.69
608.302	-26.52
609.068	-57.27
609.834	-56.25
610.599	-111.58
611.365	-62.4
612.131	-60.35
612.896	-37.79
613.662	-41.89
614.427	-20.37
615.193	-37.8
615.958	-37.8
616.723	-23.45
617.488	-11.15
618.253	-15.25
619.018	-26.52
619.783	-32.67
620.548	-29.59
621.312	-29.6
622.077	-7.05
622.842	-26.52
623.606	-30.62
624.37	-23.45
625.135	-22.42
625.899	-12.17
626.663	-29.6
627.427	-20.37
628.191	-7.05
628.955	-38.82
629.719	-23.45
630.483	-35.75
631.246	-25.5
632.01	-14.22
632.773	-13.2
633.537	-11.15
634.3	-1.92
635.063	-2.95
635.827	-12.17
636.59	-30.63
637.353	-15.25
638.116	-0.9
638.879	-9.1
639.641	6.28
640.404	-9.1
641.167	-11.15
641.929	-13.2
642.692	-0.9
643.454	-34.73
644.216	-13.2
644.979	-24.47
645.741	-8.07
646.503	3.2
647.265	-11.15
648.027	-20.37
648.789	-5
649.551	-10.12
650.312	-23.45
651.074	3.2
651.835	-17.3
652.597	-3.97
653.358	-18.32
654.12	6.28
654.881	-3.97
655.642	-23.45
656.403	-17.3
657.164	-19.35
657.925	-9.1
658.686	-2.95
659.447	-20.37
660.207	1.15
660.968	-7.05
661.728	-7.05
662.489	-8.07
663.249	-9.1
664.01	-1.92
664.77	-7.05
665.53	15.5
666.29	-8.07
667.05	2.18
667.81	1.15
668.57	3.2
669.329	-17.3
670.089	3.2
670.849	-1.92
671.608	-0.9
672.368	-8.07
673.127	-12.17
673.886	5.25
674.646	-8.07
675.405	4.23
676.164	8.33
676.923	-15.25
677.682	-9.1
678.44	1.15
679.199	6.28
679.958	-31.64
680.717	-2.95
681.475	20.63
682.233	13.45
682.992	-5
683.75	-8.07
684.508	-1.92
685.266	-10.12
686.024	8.33
686.782	13.45
687.54	1.15
688.298	-2.95
689.056	2.18
689.814	-6.02
690.571	-9.1
691.329	-8.07
692.086	1.15
692.843	16.53
693.601	11.4
694.358	-7.05
695.115	3.2
695.872	2.18
696.629	-8.07
697.386	11.4
698.143	-8.07
698.9	-9.1
699.656	-6.02
700.413	-10.12
701.169	-13.2
701.926	8.33
702.682	12.43
703.438	7.3
704.195	-3.97
704.951	-10.12
705.707	-20.38
706.463	-3.97
707.219	-12.17
707.974	-31.65
708.73	-33.7
709.486	-23.45
710.241	-9.1
710.997	-9.1
711.752	-24.47
712.508	-20.37
713.263	-14.22
714.018	8.33
714.773	-10.12
715.528	2.18
716.283	-7.05
717.038	-8.07
717.793	-24.47
718.548	-17.3
719.303	3.2
720.057	-14.22
720.812	-18.32
721.566	-23.45
722.321	-25.5
723.075	-2.95
723.829	-27.55
724.583	-11.15
725.337	-21.4
726.091	-9.1
726.845	-15.25
727.599	-10.12
728.353	-6.02
729.106	-17.3
729.86	-8.07
730.614	-24.48
731.367	-356.78
732.12	-8.07
732.874	-13.2
733.627	-21.4
734.38	-5
735.133	-6.02
735.886	-9.1
736.639	-30.63
737.392	-14.22
738.145	0.13
738.897	-11.15
739.65	-7.05
740.403	-21.4
741.155	-16.27
741.907	-27.55
742.66	-22.42
743.412	-14.22
744.164	-17.3
744.916	-7.05
745.668	-15.25
746.42	-25.49
747.172	-7.05
747.924	-18.32
748.676	-11.15
749.427	-9.1
750.179	-24.47
750.93	9.35
751.682	2.18
752.433	-12.17
753.184	-27.54
753.935	-8.07
754.687	-17.3
755.438	-17.3
756.189	-17.3
756.939	-26.52
757.69	-15.25
758.441	-9.1
759.192	-16.27
759.942	-0.9
760.693	-26.52
761.443	-10.12
762.194	-14.22
762.944	-16.27
763.694	-14.22
764.444	-13.2
765.194	-13.2
765.944	-21.4
766.694	-31.65
767.444	-13.2
768.194	-9.1
768.943	-17.3
769.693	-36.77
770.443	-17.3
771.192	-49.07
771.941	-14.23
772.691	-40.87
773.44	-26.52
774.189	-11.15
774.938	-35.75
775.687	-18.32
776.436	-31.65
777.185	-27.55
777.934	-27.55
778.683	-24.47
779.431	-24.47
780.18	-31.65
780.928	-2.95
781.677	-14.22
782.425	-21.4
783.173	-32.67
783.922	-26.52
784.67	-11.15
785.418	-34.72
786.166	-10.12
786.914	-10.12
787.661	-28.57
788.409	-27.55
789.157	-10.12
789.904	-10.12
790.652	-15.25
791.399	-10.12
792.147	-17.3
792.894	-2.95
793.641	-20.37
794.388	106.93
795.136	-7.05
795.883	10.38
796.629	-28.57
797.376	-33.7
798.123	-8.07
798.87	-9.1
799.616	-34.73
800.363	-18.32
801.109	-30.62
801.856	-20.37
802.602	-16.28
803.349	-17.3
804.095	-16.27
804.841	-26.52
805.587	-19.35
806.333	-25.5
807.079	-18.32
807.825	1.15
808.57	-31.65
809.316	-15.25
810.062	-34.72
810.807	-18.32
811.553	-1.92
812.298	-22.42
813.043	-24.47
813.788	-21.4
814.534	-19.35
815.279	-20.37
816.024	-29.6
816.769	-19.35
817.514	-21.4
818.258	-18.32
819.003	-0.9
819.748	-279.78
820.492	-17.3
821.237	-88.47
821.981	-7.05
822.726	-28.57
823.47	-34.72
824.214	-22.42
824.958	-44.97
825.702	-39.85
826.446	-19.35
827.19	-5
827.934	-18.32
828.678	-18.32
829.421	-8.07
830.165	-33.7
830.909	-18.32
831.652	-20.37
832.395	-22.42
833.139	-13.2
833.882	-17.29
834.625	-16.27
835.368	-25.5
836.111	-13.2
836.854	-43.95
837.597	-9.1
838.34	-32.67
839.083	-10.12
839.825	-28.57
840.568	1.15
841.311	-21.4
842.053	-17.3
842.795	-15.25
843.538	-12.17
844.28	-18.32
845.022	-14.22
845.764	-22.42
846.506	-14.22
847.248	-40.88
847.99	-29.6
848.732	-18.32
849.474	-24.47
850.215	-18.33
850.957	-22.43
851.698	-20.37
852.44	-25.5
853.181	-20.37
853.922	-13.2
854.664	-13.2
855.405	-28.57
856.146	-20.38
856.887	-15.25
857.628	-26.52
858.369	-12.17
859.109	-30.62
859.85	-26.52
860.591	-7.05
861.331	-29.6
862.072	-10.12
862.812	-28.58
863.553	-10.12
864.293	-26.52
865.033	-19.35
865.773	-5
866.513	-7.05
867.253	-24.48
867.993	-13.2
868.733	-26.52
869.473	-25.5
870.213	-34.72
870.952	-33.7
871.692	-31.65
872.431	-12.17
873.171	-13.2
873.91	-1.92
874.649	-23.45
875.388	-33.7
876.128	-23.45
876.867	-23.45
877.606	-26.52
878.345	-23.45
879.083	-18.32
879.822	-29.6
880.561	-31.65
881.299	-18.32
882.038	-21.4
882.777	3.2
883.515	-21.4
884.253	-22.16
884.992	-37.8
885.73	-27.55
886.468	-22.42
887.206	-12.17
887.944	-30.62
888.682	-39.85
889.42	-28.57
890.157	-21.4
890.895	-13.2
891.633	-23.42
892.37	-31.65
893.108	-23.45
893.845	-30.62
894.583	-20.37
895.32	-22.43
896.057	-19.35
896.794	-18.32
897.531	-38.82
898.268	-33.7
899.005	-30.63
899.742	-12.17
900.479	-33.7
901.215	-10.12
901.952	-9.1
902.689	-26.53
903.425	-5
904.162	-10.12
904.898	-19.35
905.634	-6.02
906.37	-19.35
907.106	3.2
907.843	-13.2
908.579	-24.47
909.314	-8.07
910.05	-22.42
910.786	-29.6
911.522	-20.38
912.257	-39.85
912.993	-7.05
913.728	-8.07
914.464	-24.47
915.199	-21.4
915.935	-28.58
916.67	-30.63
917.405	-30.62
918.14	-17.3
918.875	-18.32
919.61	-15.25
920.345	-31.65
921.08	-28.57
921.814	-10.12
922.549	-10.12
923.284	-22.42
924.018	-18.32
924.752	-36.77
925.487	-26.52
926.221	-18.32
926.955	-11.15
927.69	-21.4
928.424	-28.58
929.158	-21.4
929.892	-29.6
930.625	-10.12
931.359	-14.22
932.093	-2.95
932.827	-26.53
933.56	-20.37
934.294	-13.2
935.027	-18.32
935.761	-24.47
936.494	-13.2
937.227	-24.47
937.96	-25.5
938.693	-18.32
939.426	-29.6
940.159	-37.8
940.892	-12.17
941.625	-16.27
942.358	-30.62
943.091	-19.35
943.823	-29.6
944.556	-25.5
945.288	-2.95
946.021	-21.4
946.753	-27.55
947.485	-19.35
948.217	0.13
948.95	-30.62
949.682	-17.3
950.414	-21.4
951.146	-15.25
951.877	-12.17
952.609	7.3
953.341	-13.2
954.073	-19.35
954.804	-16.27
955.536	-10.12
956.267	-37.8
956.998	-3.97
957.73	-27.55
958.461	-21.4
959.192	0.13
959.923	-28.57
960.654	-19.35
961.385	-5
962.116	-13.2
962.847	-20.37
963.578	-19.35
964.308	-26.52
965.039	-24.48
965.769	-31.65
966.5	-17.3
967.23	-16.27
967.961	-19.35
968.691	-27.55
969.421	-18.33
970.151	-30.62
970.881	-41.9
971.611	-30.62
972.341	-26.52
973.071	-29.6
973.801	-26.52
974.53	-19.35
975.26	-20.37
975.99	-23.45
976.719	-32.67
977.448	-5
978.178	-20.37
978.907	-15.25
979.636	-18.33
980.365	-10.12
981.095	1.15
981.824	-24.47
982.553	-23.45
983.281	-1.92
984.01	-1.92
984.739	7.31
985.468	-9.11
986.196	5.26
986.925	-22.42
987.653	-27.55
988.382	-14.22
989.11	-25.5
989.838	-17.3
990.566	-22.42
991.295	-23.45
992.023	-0.9
992.751	-14.22
993.478	-12.17
994.206	-20.37
994.934	-33.7
995.662	-3.98
996.389	5.26
997.117	-11.16
997.845	8.34
