Data from White_Subt2_003.txt Node
Date: Fri Aug 23 09:19:33 EDT 2019
User: wcc
Spectrometer: QEPB0759
Trigger mode: 0
Integration Time (sec): 1.000000E0
Scans to average: 1
Electric dark correction enabled: true
Nonlinearity correction enabled: true
Boxcar width: 0
XAxis mode: Wavelengths
Number of Pixels in Spectrum: 1044
>>>>>Begin Spectral Data<<<<<
197.938	27.03
198.749	10.63
199.559	0.38
200.369	18.84
201.179	14.74
201.988	11.66
202.798	15.76
203.608	5.51
204.417	-9.87
205.227	29.09
206.036	19.86
206.846	-1.67
207.655	10.63
208.464	10.63
209.273	27.03
210.082	18.84
210.891	10.64
211.7	22.94
212.508	-0.64
213.317	18.84
214.125	14.74
214.934	20.89
215.742	7.56
216.55	32.16
217.359	15.76
218.167	29.09
218.975	3.46
219.782	17.81
220.59	10.64
221.398	14.74
222.206	10.63
223.013	24.99
223.82	7.56
224.628	3.46
225.435	24.99
226.242	6.53
227.049	7.56
227.856	33.19
228.663	11.66
229.47	13.71
230.277	29.09
231.083	22.94
231.89	10.64
232.696	3.46
233.502	17.81
234.309	10.64
235.115	15.76
235.921	11.66
236.727	22.94
237.533	4.48
238.339	6.53
239.144	30.11
239.95	10.63
240.756	6.53
241.561	4.48
242.366	6.54
243.172	24.98
243.977	24.98
244.782	-1.67
245.587	35.23
246.392	17.81
247.197	16.79
248.001	15.76
248.806	11.66
249.611	12.69
250.415	26.01
251.219	20.89
252.024	19.86
252.828	24.99
253.632	23.96
254.436	32.16
255.24	-3.72
256.044	44.46
256.848	12.69
257.651	24.99
258.455	12.68
259.258	12.68
260.062	1029.38
260.865	9.61
261.668	33.19
262.471	18.84
263.274	1.41
264.077	27.04
264.88	20.89
265.683	24.99
266.486	33.19
267.288	26.01
268.091	37.29
268.893	-22.17
269.696	30.11
270.498	16.78
271.3	-1.67
272.102	18.83
272.904	12.69
273.706	36.26
274.508	34.21
275.309	9.61
276.111	28.06
276.913	35.24
277.714	19.86
278.515	18.84
279.317	30.11
280.118	27.04
280.919	27.03
281.72	22.94
282.521	10.63
283.322	23.96
284.122	29.08
284.923	8.58
285.724	29.09
286.524	18.84
287.325	12.68
288.125	1.41
288.925	18.84
289.725	-3.72
290.525	22.93
291.325	9.61
292.125	18.83
292.925	12.68
293.724	20.89
294.524	15.76
295.324	19.86
296.123	11.66
296.922	30.11
297.722	45.47
298.521	13.71
299.32	29.08
300.119	12.69
300.918	13.71
301.716	24.98
302.515	7.56
303.314	12.68
304.112	16.79
304.911	12.68
305.709	19.86
306.507	16.78
307.306	18.83
308.104	28.06
308.902	21.91
309.7	15.76
310.498	18.83
311.295	15.76
312.093	2.43
312.891	-2.69
313.688	36.26
314.485	16.79
315.283	30.11
316.08	19.86
316.877	11.66
317.674	6.53
318.471	21.91
319.268	29.09
320.065	29.08
320.862	1.41
321.658	32.16
322.455	37.28
323.251	10.64
324.047	8.59
324.844	29.08
325.64	34.21
326.436	27.03
327.232	13.71
328.028	18.84
328.824	23.96
329.62	33.18
330.415	21.91
331.211	18.83
332.006	36.26
332.802	8.58
333.597	17.81
334.392	30.11
335.187	24.98
335.982	45.49
336.777	31.13
337.572	8.59
338.367	4.48
339.162	22.93
339.956	31.14
340.751	28.06
341.545	10.63
342.34	17.81
343.134	22.94
343.928	18.83
344.722	30.11
345.516	22.94
346.31	10.64
347.104	35.23
347.898	18.84
348.691	19.86
349.485	23.96
350.278	-1.67
351.072	20.88
351.865	-363.54
352.658	28.06
353.452	23.96
354.245	28.06
355.038	23.96
355.83	23.96
356.623	16.79
357.416	13.71
358.209	38.31
359.001	21.91
359.794	15.76
360.586	18.83
361.378	23.96
362.17	15.76
362.963	16.79
363.755	39.33
364.546	27.04
365.338	22.93
366.13	37.28
366.922	23.96
367.713	33.19
368.505	34.21
369.296	37.29
370.088	43.44
370.879	29.09
371.67	33.18
372.461	57.79
373.252	55.74
374.043	53.68
374.834	55.74
375.625	69.06
376.415	68.03
377.206	80.33
377.996	101.86
378.787	123.36
379.577	139.79
380.367	184.89
381.157	228.92
381.947	265.82
382.737	306.79
383.527	355.94
384.317	408.15
385.107	495.29
385.896	533.07
386.686	633.45
387.475	721.45
388.265	841.29
389.054	959.57
389.843	1085.78
390.632	1226.83
391.421	1369.93
392.21	1527.27
392.999	1710.36
393.788	1875.65
394.576	2065.39
395.365	2240.87
396.154	2507.25
396.942	2681.66
397.73	2885.2
398.519	3131.65
399.307	3311.75
400.095	3487.68
400.883	3718.07
401.671	3933.14
402.459	4163.69
403.246	4388.41
404.034	4628.9
404.822	4891.48
405.609	5140.34
406.396	5343.83
407.184	5498.11
407.971	5667.28
408.758	5784.76
409.545	5904.85
410.332	6021.35
411.119	6154.12
411.906	6340.18
412.693	6535.28
413.479	6803.97
414.266	7076.43
415.052	7433
415.839	7844.08
416.625	8226.33
417.411	8767.1
418.197	9192.83
418.983	9629.64
419.769	9851.95
420.555	9821.34
421.341	9723.01
422.127	9608.08
422.912	9563.1
423.698	9490.38
424.483	9507.72
425.269	9559.35
426.054	9676.78
426.839	9857.13
427.624	10127.54
428.409	10457.67
429.194	10778.99
429.979	11236.37
430.764	11640.52
431.549	12081.01
432.333	12386.62
433.118	12784.8
433.902	13048.74
434.687	13240.66
435.471	13434.11
436.255	13633.77
437.039	13923.1
437.823	14127.34
438.607	14242.86
439.391	14214.88
440.175	14209.23
440.958	14278.98
441.742	14476.64
442.526	14642.9
443.309	14790.98
444.092	14965.82
444.876	15180.89
445.659	15404.11
446.442	15573.18
447.225	15908.16
448.008	16482.37
448.791	17742.37
449.573	19444.68
450.356	19729.74
451.139	19122.87
451.921	19464.63
452.704	19406.38
453.486	19116.53
454.268	19491.23
455.05	20125.25
455.833	20746.04
456.615	21542.32
457.396	22301.78
458.178	22737.65
458.96	22835.5
459.742	22971.04
460.523	23389.94
461.305	24192.37
462.086	24996.73
462.868	25470.65
463.649	25364.04
464.43	25184.64
465.211	25511.04
465.992	26728.61
466.773	28980.05
467.554	30843.05
468.335	31004.91
469.115	30280.78
469.896	29278.26
470.676	28625.45
471.457	28647.63
472.237	30723.54
473.018	32814.02
473.798	31095.74
474.578	28788.2
475.358	28039.8
476.138	27911.82
476.918	28022.63
477.697	28279.93
478.477	28871.04
479.257	29986.97
480.036	31582.93
480.816	33223.88
481.595	33882.79
482.374	34036.91
483.153	33975.64
483.932	33669.96
484.711	33088.08
485.49	32894.16
486.269	32972.8
487.048	33320.33
487.827	33907.34
488.605	34640.17
489.384	35382.42
490.162	36780.11
490.941	39149.36
491.719	41445.29
492.497	41834.11
493.275	41218.81
494.053	40451.99
494.831	39920.79
495.609	39624.39
496.387	39531.68
497.164	39603.97
497.942	39846.01
498.72	39999.43
499.497	40186.97
500.274	40407.75
501.052	40729.97
501.829	41134.23
502.606	41536.71
503.383	41891.06
504.16	42058.44
504.937	42136.19
505.714	42315.08
506.49	42631.69
507.267	42821.55
508.043	43022.25
508.82	43415.04
509.596	43770.34
510.373	44092.39
511.149	44560.04
511.925	45169.78
512.701	45653.15
513.477	46061.99
514.253	46408.01
515.029	46751.36
515.804	47232.15
516.58	47584.4
517.356	48164.59
518.131	48594.49
518.906	49099.33
519.682	49377.65
520.457	49777.86
521.232	50239.92
522.007	50542.12
522.782	50926.53
523.557	51129.65
524.332	51338.26
525.107	51563.31
525.881	51784.72
526.656	51856.98
527.43	52051.37
528.205	52290.6
528.979	52327.47
529.753	52170.83
530.527	51994.77
531.302	51931.19
532.076	51730.39
532.849	51688.57
533.623	51498.08
534.397	51247.45
535.171	50970.25
535.944	50802.16
536.718	50568.05
537.491	50312.81
538.265	50262.94
539.038	50201.67
539.811	50144.31
540.584	50149.61
541.357	50085.99
542.13	50094.46
542.903	49881.64
543.676	49768.97
544.449	49638.86
545.221	49659.69
545.994	49668.8
546.766	49658.46
547.539	49594.52
548.311	49545.18
549.083	49624.35
549.855	49711.83
550.627	49787.83
551.399	50050.76
552.171	50293.58
552.943	50474.18
553.715	50696.31
554.486	51023.78
555.258	51284.76
556.029	51659.5
556.801	52040.83
557.572	52304.27
558.343	52721.83
559.114	53093.33
559.886	53453.23
560.657	53775.13
561.427	54100.3
562.198	54374.22
562.969	54679.93
563.74	54877.53
564.51	55159.76
565.281	55331.58
566.051	55529.1
566.822	55697.54
567.592	55707.72
568.362	55628.07
569.132	55572.86
569.902	55420.23
570.672	55150.74
571.442	54871.13
572.212	54633.02
572.982	54474.68
573.751	54027.38
574.521	53900.88
575.29	53613.65
576.06	53379.12
576.829	52986.57
577.598	52705.42
578.367	52489.15
579.136	52250.48
579.905	52114.26
580.674	51970.31
581.443	51860.1
582.212	51667.83
582.981	51745.86
583.749	51732.84
584.518	51613.17
585.286	51667.8
586.054	51646
586.823	51652.22
587.591	51695.48
588.359	51667.89
589.127	51640.04
589.895	51629.44
590.663	51567.73
591.431	51487.38
592.198	51431.79
592.966	51320.73
593.734	51207.08
594.501	51094.23
595.268	50891.41
596.036	50698.38
596.803	50540.62
597.57	50086.47
598.337	49828.37
599.104	49404.68
599.871	49205.59
600.638	48829.67
601.405	48414.22
602.171	48324.21
602.938	47915.93
603.704	47703.31
604.471	47334.38
605.237	47075.94
606.004	46789.21
606.77	46660.53
607.536	46486.03
608.302	46382.82
609.068	46307.06
609.834	46198.88
610.599	46269.67
611.365	46271.69
612.131	46294.37
612.896	46268.06
613.662	46186.7
614.427	46162.65
615.193	45944.78
615.958	45889.48
616.723	45733.39
617.488	45738.72
618.253	45620.49
619.018	45438.36
619.783	45073.1
620.548	44954.07
621.312	44821.56
622.077	44699.86
622.842	44465.92
623.606	44228.69
624.37	43945.83
625.135	43655.45
625.899	43465.11
626.663	43121.76
627.427	42620.6
628.191	42204.49
628.955	41966.15
629.719	41810.79
630.483	41418.89
631.246	40970.63
632.01	40603.67
632.773	40189.89
633.537	39709.93
634.3	39185.42
635.063	38740.01
635.827	38355.38
636.59	37886.66
637.353	37395.99
638.116	37032.56
638.879	36527.67
639.641	36128.16
640.404	35700.17
641.167	35288.76
641.929	34895.74
642.692	34465.22
643.454	34050.37
644.216	33830.37
644.979	33471.87
645.741	33162.74
646.503	33023.08
647.265	32734.76
648.027	32459.99
648.789	32278.3
649.551	31961.22
650.312	31272.57
651.074	30699.99
651.835	30266.15
652.597	29792.6
653.358	29438.54
654.12	29073.32
654.881	28825.14
655.642	28536.12
656.403	28332.34
657.164	28172.8
657.925	28100.24
658.686	27934.98
659.447	27883.19
660.207	27894.33
660.968	27822.99
661.728	27792.43
662.489	27743.4
663.249	27851.24
664.01	27931.22
664.77	28080.99
665.53	28122.01
666.29	28231.93
667.05	28251.03
667.81	28281.37
668.57	28338.63
669.329	28378.63
670.089	28472.77
670.849	28560.23
671.608	28572.48
672.368	28549.42
673.127	28485.85
673.886	28496.99
674.646	28377.27
675.405	28343.14
676.164	28187.64
676.923	28026.67
677.682	27870.96
678.44	27775.91
679.199	27626.38
679.958	27501.63
680.717	27632.32
681.475	28068.85
682.233	28670.95
682.992	28757
683.75	28156.69
684.508	27370.58
685.266	26707.91
686.024	26223.99
686.782	25809.36
687.54	25529.68
688.298	25137.18
689.056	24695.05
689.814	24255.29
690.571	23641.18
691.329	23110.18
692.086	22500.94
692.843	22139.12
693.601	21680.53
694.358	21169.07
695.115	20750.57
695.872	20369.27
696.629	20044.7
697.386	19750.09
698.143	19393.73
698.9	19134.4
699.656	19023.95
700.413	18782.16
701.169	18561.78
701.926	18357.27
702.682	18274.29
703.438	18074.71
704.195	17853.57
704.951	17694.65
705.707	17573.66
706.463	17554.91
707.219	17512.14
707.974	17428.33
708.73	17417.32
709.486	17366.52
710.241	17290.26
710.997	17226.97
711.752	17068.37
712.508	16793.49
713.263	16393.84
714.018	16074.46
714.773	15619.93
715.528	15107.84
716.283	14591.76
717.038	14153.54
717.793	13676.33
718.548	13110.68
719.303	12548.03
720.057	12063.6
720.812	11571.2
721.566	11127.38
722.321	10741.51
723.075	10480.9
723.829	10147.23
724.583	9986.75
725.337	9730.14
726.091	9539.89
726.845	9360.45
727.599	9295.51
728.353	9146.33
729.106	8948.1
729.86	8885.61
730.614	8857.27
731.367	8904.06
732.12	8968.54
732.874	8803.95
733.627	8409.23
734.38	7972.74
735.133	7526.26
735.886	7211.8
736.639	6913.68
737.392	6786.2
738.145	6678.89
738.897	6564.33
739.65	6476.12
740.403	6347.38
741.155	6194.49
741.907	5837.54
742.66	5414.52
743.412	4862.69
744.164	4172.75
744.916	3465.07
745.668	2586.62
746.42	1724.18
747.172	1057.11
747.924	535.18
748.676	302.72
749.427	207.41
750.179	165.38
750.93	143.86
751.682	125.44
752.433	117.22
753.184	91.59
753.935	102.89
754.687	95.71
755.438	91.6
756.189	99.81
756.939	89.56
757.69	89.56
758.441	100.83
759.192	83.41
759.942	97.75
760.693	61.88
761.443	84.43
762.194	95.71
762.944	90.59
763.694	86.48
764.444	96.74
765.194	77.26
765.944	82.38
766.694	57.78
767.444	70.07
768.194	67
768.943	46.51
769.693	40.36
770.443	55.73
771.192	44.46
771.941	62.92
772.691	43.43
773.44	49.58
774.189	56.76
774.938	28.06
775.687	60.86
776.436	34.21
777.185	36.26
777.934	43.44
778.683	53.68
779.431	44.46
780.18	31.13
780.928	50.61
781.677	46.51
782.425	49.58
783.173	53.68
783.922	45.48
784.67	55.72
785.418	41.38
786.166	57.78
786.914	63.94
787.661	52.66
788.409	35.23
789.157	33.19
789.904	53.69
790.652	69.05
791.399	43.43
792.147	39.33
792.894	48.56
793.641	47.54
794.388	229.21
795.136	52.66
795.883	53.69
796.629	44.46
797.376	20.89
798.123	48.56
798.87	45.49
799.616	10.63
800.363	33.18
801.109	21.91
801.856	11.66
802.602	23.96
803.349	36.26
804.095	30.1
804.841	26.01
805.587	33.19
806.333	19.86
807.079	23.96
807.825	42.41
808.57	16.78
809.316	26.01
810.062	17.81
810.807	20.88
811.553	12.68
812.298	7.56
813.043	24.98
813.788	24.98
814.534	43.43
815.279	13.71
816.024	12.68
816.769	17.81
817.514	20.88
818.258	15.76
819.003	46.5
819.748	-792.45
820.492	9.61
821.237	-192.11
821.981	42.41
822.726	22.93
823.47	2.43
824.214	20.88
824.958	4.48
825.702	4.48
826.446	7.56
827.19	35.23
827.934	6.53
828.678	34.21
829.421	27.03
830.165	4.48
830.909	19.86
831.652	9.61
832.395	10.63
833.139	9.61
833.882	13.71
834.625	15.76
835.368	10.63
836.111	26.01
836.854	0.38
837.597	16.78
838.34	11.66
839.083	28.06
839.825	-0.64
840.568	37.29
841.311	19.86
842.053	10.63
842.795	20.89
843.538	15.76
844.28	5.51
845.022	22.94
845.764	11.66
846.506	8.59
847.248	-6.79
847.99	-7.82
848.732	9.61
849.474	0.38
850.215	4.49
850.957	6.54
851.698	4.48
852.44	6.53
853.181	21.91
853.922	11.66
854.664	12.69
855.405	1.41
856.146	9.61
856.887	18.84
857.628	-8.84
858.369	17.81
859.109	8.58
859.85	10.64
860.591	13.71
861.331	19.86
862.072	5.51
862.812	2.43
863.553	15.76
864.293	3.46
865.033	6.53
865.773	20.89
866.513	8.59
867.253	8.59
867.993	30.11
868.733	10.63
869.473	-7.82
870.213	-14.99
870.952	-2.69
871.692	-10.89
872.431	11.66
873.171	2.43
873.91	24.99
874.649	23.96
875.388	18.84
876.128	4.48
876.867	2.43
877.606	3.46
878.345	1.41
879.083	2.43
879.822	-10.89
880.561	-7.82
881.299	5.51
882.038	10.64
882.777	28.06
883.515	0.38
884.253	361.92
884.992	2.43
885.73	-4.74
886.468	16.79
887.206	13.71
887.944	-3.72
888.682	0.38
889.42	-25.24
890.157	-1.67
890.895	14.74
891.633	0.38
892.37	-11.92
893.108	-10.89
893.845	0.38
894.583	-8.84
895.32	9.61
896.057	1.41
896.794	-7.82
897.531	-13.97
898.268	-19.09
899.005	-9.87
899.742	0.38
900.479	-18.07
901.215	-3.72
901.952	-3.72
902.689	-4.74
903.425	-2.69
904.162	6.54
904.898	-2.69
905.634	9.61
906.37	-16.02
907.106	16.79
907.843	-2.69
908.579	-7.82
909.314	-2.69
910.05	-14.99
910.786	-12.94
911.522	-12.94
912.257	-22.17
912.993	-1.67
913.728	7.56
914.464	-3.72
915.199	-7.82
915.935	-2.69
916.67	-29.34
917.405	-19.09
918.14	-5.77
918.875	-1.67
919.61	5.51
920.345	6.53
921.08	-38.56
921.814	-14.99
922.549	-3.72
923.284	-14.99
924.018	-1.67
924.752	-18.06
925.487	-13.97
926.221	-2.69
926.955	-19.09
927.69	5.51
928.424	-3.72
929.158	-12.94
929.892	-9.87
930.625	4.48
931.359	2.43
932.093	-6.79
932.827	-12.94
933.56	-14.99
934.294	1.41
935.027	-4.74
935.761	-3.72
936.494	2.43
937.227	-20.12
937.96	-18.07
938.693	-6.79
939.426	-13.97
940.159	-17.04
940.892	-3.72
941.625	-18.06
942.358	-11.92
943.091	-9.87
943.823	-5.77
944.556	-3.72
945.288	9.61
946.021	-2.69
946.753	3.46
947.485	-10.89
948.217	10.64
948.95	-22.17
949.682	-5.77
950.414	-13.97
951.146	-8.84
951.877	-2.69
952.609	24.99
953.341	-10.89
954.073	-8.84
954.804	0.38
955.536	-2.69
956.267	-28.32
956.998	4.49
957.73	-20.12
958.461	-18.07
959.192	12.69
959.923	-7.82
960.654	11.66
961.385	0.38
962.116	-0.64
962.847	3.46
963.578	0.38
964.308	-14.99
965.039	-5.77
965.769	-2.69
966.5	-6.79
967.23	-2.69
967.961	-4.74
968.691	-4.74
969.421	-10.89
970.151	-24.22
970.881	-29.35
971.611	-14.99
972.341	-6.79
973.071	-28.32
973.801	-4.74
974.53	3.46
975.26	-19.09
975.99	-11.92
976.719	-20.12
977.448	-2.69
978.178	-13.97
978.907	-2.69
979.636	-9.87
980.365	-14.99
981.095	-10.89
981.824	-20.12
982.553	-5.77
983.281	-14.99
984.01	-6.8
984.739	6.54
985.468	-8.85
986.196	2.44
986.925	5.51
987.653	7.56
988.382	16.78
989.11	3.46
989.838	12.68
990.566	22.93
991.295	-19.09
992.023	-3.72
992.751	-2.69
993.478	-0.64
994.206	-4.74
994.934	1.41
995.662	2.44
996.389	2.44
997.117	-10.9
997.845	12.7
