Data from White_Subt2_004.txt Node
Date: Fri Aug 23 09:19:34 EDT 2019
User: wcc
Spectrometer: QEPB0759
Trigger mode: 0
Integration Time (sec): 1.000000E0
Scans to average: 1
Electric dark correction enabled: true
Nonlinearity correction enabled: true
Boxcar width: 0
XAxis mode: Wavelengths
Number of Pixels in Spectrum: 1044
>>>>>Begin Spectral Data<<<<<
197.938	23.96
198.749	18.83
199.559	11.66
200.369	16.79
201.179	19.86
201.988	12.69
202.798	20.88
203.608	8.58
204.417	6.53
205.227	30.11
206.036	18.83
206.846	1.41
207.655	11.66
208.464	10.63
209.273	34.21
210.082	13.71
210.891	27.04
211.7	11.66
212.508	1.41
213.317	39.34
214.125	12.69
214.934	18.84
215.742	14.74
216.55	30.11
217.359	12.69
218.167	33.19
218.975	13.71
219.782	16.79
220.59	0.38
221.398	15.76
222.206	18.83
223.013	27.04
223.82	24.99
224.628	6.54
225.435	20.89
226.242	14.73
227.049	11.66
227.856	27.04
228.663	14.73
229.47	23.96
230.277	28.06
231.083	18.84
231.89	4.48
232.696	10.63
233.502	16.79
234.309	9.61
235.115	21.91
235.921	4.48
236.727	14.74
237.533	12.68
238.339	6.53
239.144	16.78
239.95	16.78
240.756	13.71
241.561	9.61
242.366	12.69
243.172	10.63
243.977	24.98
244.782	10.63
245.587	26.01
246.392	31.13
247.197	26.01
248.001	29.09
248.806	30.11
249.611	24.99
250.415	33.18
251.219	20.89
252.024	29.08
252.828	15.76
253.632	28.06
254.436	40.36
255.24	6.53
256.044	23.96
256.848	12.69
257.651	13.71
258.455	13.71
259.258	7.56
260.062	47.21
260.865	31.13
261.668	33.19
262.471	18.84
263.274	17.81
264.077	23.96
264.88	14.74
265.683	36.26
266.486	33.19
267.288	22.93
268.091	40.37
268.893	-17.04
269.696	21.91
270.498	9.61
271.3	11.66
272.102	11.66
272.904	15.76
273.706	34.21
274.508	23.96
275.309	11.66
276.111	26.01
276.913	43.44
277.714	29.09
278.515	18.84
279.317	22.93
280.118	45.49
280.919	22.93
281.72	23.96
282.521	15.76
283.322	16.79
284.122	21.91
284.923	26.01
285.724	28.06
286.524	34.21
287.325	4.48
288.125	1.41
288.925	21.91
289.725	-2.69
290.525	23.96
291.325	21.91
292.125	26.01
292.925	6.53
293.724	20.89
294.524	16.79
295.324	39.34
296.123	16.78
296.922	27.04
297.722	29.07
298.521	22.93
299.32	20.88
300.119	1.41
300.918	7.56
301.716	39.33
302.515	22.94
303.314	23.96
304.112	6.53
304.911	23.96
305.709	10.64
306.507	8.58
307.306	16.78
308.104	18.84
308.902	20.89
309.7	13.71
310.498	4.48
311.295	13.71
312.093	15.76
312.891	-0.64
313.688	20.88
314.485	23.96
315.283	26.01
316.08	28.06
316.877	12.68
317.674	7.56
318.471	12.69
319.268	21.91
320.065	34.21
320.862	13.71
321.658	35.24
322.455	36.26
323.251	4.48
324.047	19.86
324.844	12.68
325.64	28.06
326.436	35.23
327.232	10.63
328.028	23.96
328.824	36.26
329.62	24.98
330.415	9.61
331.211	19.86
332.006	29.09
332.802	20.88
333.597	16.78
334.392	28.06
335.187	22.93
335.982	39.34
336.777	20.88
337.572	18.84
338.367	33.18
339.162	23.96
339.956	34.21
340.751	31.13
341.545	11.66
342.34	13.71
343.134	29.09
343.928	15.76
344.722	24.98
345.516	21.91
346.31	20.89
347.104	15.76
347.898	24.99
348.691	11.66
349.485	35.24
350.278	6.53
351.072	19.86
351.865	-309.79
352.658	34.21
353.452	27.03
354.245	33.19
355.038	23.96
355.83	34.21
356.623	26.01
357.416	33.19
358.209	30.11
359.001	32.16
359.794	18.83
360.586	24.98
361.378	27.03
362.17	15.76
362.963	27.04
363.755	44.45
364.546	23.96
365.338	35.23
366.13	37.28
366.922	23.96
367.713	39.34
368.505	27.04
369.296	35.24
370.088	49.59
370.879	27.04
371.67	39.33
372.461	51.64
373.252	52.66
374.043	55.73
374.834	50.62
375.625	71.11
376.415	72.13
377.206	83.4
377.996	99.81
378.787	137.7
379.577	145.93
380.367	179.77
381.157	241.21
381.947	270.94
382.737	306.79
383.527	357.99
384.317	419.41
385.107	505.53
385.896	552.52
386.686	641.64
387.475	731.69
388.265	852.55
389.054	952.41
389.843	1087.83
390.632	1228.88
391.421	1365.84
392.21	1524.21
392.999	1704.23
393.788	1873.61
394.576	2061.31
395.365	2264.33
396.154	2510.31
396.942	2711.22
397.73	2916.77
398.519	3144.88
399.307	3307.68
400.095	3527.35
400.883	3717.05
401.671	3969.72
402.459	4209.39
403.246	4418.87
404.034	4676.59
404.822	4896.55
405.609	5152.51
406.396	5345.86
407.184	5534.57
407.971	5681.45
408.758	5808.04
409.545	5958.5
410.332	6014.27
411.119	6207.73
411.906	6326.02
412.693	6596.93
413.479	6803.97
414.266	7109.75
415.052	7494.55
415.839	7866.26
416.625	8304.94
417.411	8788.24
418.197	9259.24
418.983	9683.93
419.769	9929.35
420.555	9882.66
421.341	9797.41
422.127	9648.31
422.912	9622.43
423.698	9581.89
424.483	9549.97
425.269	9600.58
426.054	9726.06
426.839	9937.55
427.624	10218.98
428.409	10464.71
429.194	10870.35
429.979	11277.51
430.764	11758.86
431.549	12114.09
432.333	12533.91
433.118	12783.8
433.902	13090.8
434.687	13285.71
435.471	13545.2
436.255	13713.82
437.039	13978.12
437.823	14164.35
438.607	14311.86
439.391	14275.88
440.175	14278.23
440.958	14381.98
441.742	14503.64
442.526	14673.89
443.309	14847.95
444.092	15088.72
444.876	15274.8
445.659	15488.02
446.442	15695.01
447.225	15987.03
448.008	16503.32
448.791	17883.89
449.573	19544.19
450.356	19827.24
451.139	19255.26
451.921	19605.95
452.704	19492.97
453.486	19228.02
454.268	19539.99
455.05	20227.7
455.833	20859.37
456.615	21639.68
457.396	22324.62
458.178	22858.74
458.96	22888.11
459.742	23013.72
460.523	23454.43
461.305	24239.98
462.086	25060.17
462.868	25627.22
463.649	25508.73
464.43	25269.88
465.211	25544.73
465.992	26825.68
466.773	29068.18
467.554	30902.48
468.335	31103.96
469.115	30343.17
469.896	29473.33
470.676	28679.91
471.457	28796.16
472.237	30868.15
473.018	32965.71
473.798	31286.92
474.578	28934.75
475.358	28229.93
476.138	28052.44
476.918	28153.34
477.697	28460.14
478.477	29025.51
479.257	30144.42
480.036	31789.01
480.816	33281.4
481.595	34053.46
482.374	34085.53
483.153	34111.59
483.932	33747.33
484.711	33273.51
485.49	33068.67
486.269	33064.02
487.048	33476.04
487.827	34051.22
488.605	34786.12
489.384	35532.45
490.162	36917.44
490.941	39265.13
491.719	41577.4
492.497	42068.43
493.275	41414.93
494.053	40679.92
494.831	40091.6
495.609	39817.12
496.387	39729.39
497.164	39823.67
497.942	39916.92
498.72	40147.29
499.497	40348.86
500.274	40598.66
501.052	40885.97
501.829	41272.3
502.606	41802.97
503.383	42000.21
504.16	42287.82
504.937	42270.42
505.714	42458.34
506.49	42698.84
507.267	42971.92
508.043	43156.61
508.82	43583.58
509.596	43887.74
510.373	44276.09
511.149	44756.87
511.925	45317.49
512.701	45847.17
513.477	46209.82
514.253	46668.55
515.029	46969.7
515.804	47338.84
516.58	47837.12
517.356	48207.9
518.131	48719.41
518.906	49182.97
519.682	49632.69
520.457	49946.25
521.232	50395.26
522.007	50694.48
522.782	51055.73
523.557	51327.53
524.332	51494.78
525.107	51780.52
525.881	51930.22
526.656	52092.42
527.43	52285.89
528.205	52507.01
528.979	52457.92
529.753	52230.47
530.527	51972.53
531.302	51949.37
532.076	51909.24
532.849	51853.25
533.623	51613.23
534.397	51421.12
535.171	51200.41
535.944	51000.99
536.718	50837.47
537.491	50466.16
538.265	50392.05
539.038	50399.38
539.811	50263.33
540.584	50327.14
541.357	50357.32
542.13	50168.1
542.903	50110.59
543.676	50023.09
544.449	49890.93
545.221	49926.9
545.994	49904.74
546.766	49843.98
547.539	49755.82
548.311	49787.15
549.083	49799.79
549.855	49891.29
550.627	50042.96
551.399	50182.88
552.171	50555.9
552.943	50724.42
553.715	50999.06
554.486	51272.12
555.258	51519.04
556.029	51777.7
556.801	52284.46
557.572	52546.97
558.343	52924.23
559.114	53175.37
559.886	53614.42
560.657	54112.04
561.427	54377.54
562.198	54728.04
562.969	54913
563.74	55204.54
564.51	55345.32
565.281	55605.25
566.051	55753.81
566.822	55920.42
567.592	55870.28
568.362	55972.6
569.132	55865.15
569.902	55655.23
570.672	55339.34
571.442	55145.18
572.212	54870.14
572.982	54616.01
573.751	54323.94
574.521	54186.12
575.29	53840.89
576.06	53520.01
576.829	53136.43
577.598	52888.59
578.367	52630.76
579.136	52466.87
579.905	52248.72
580.674	52131.03
581.443	52052.12
582.212	51925.48
582.981	51820.63
583.749	51962.21
584.518	51862.71
585.286	51851.69
586.054	51814.74
586.823	51934.13
587.591	51798.53
588.359	51873
589.127	51809.77
589.895	51921.45
590.663	51753.62
591.431	51642.94
592.198	51653
592.966	51515.65
593.734	51324.21
594.501	51262.84
595.268	51132.66
596.036	50812.43
596.803	50625.37
597.57	50253.9
598.337	50011.89
599.104	49694
599.871	49158.22
600.638	48919.35
601.405	48590.51
602.171	48365.5
602.938	48033.76
603.704	47745.59
604.471	47447.11
605.237	47146.39
606.004	46966.3
606.77	46840.63
607.536	46699.32
608.302	46523.65
609.068	46483.09
609.834	46330.63
610.599	46234.47
611.365	46353.16
612.131	46389.92
612.896	46438.05
613.662	46357.69
614.427	46282.33
615.193	46167.02
615.958	46054.39
616.723	45916.38
617.488	45886.5
618.253	45712.97
619.018	45508.71
619.783	45344.4
620.548	45109.8
621.312	44906.94
622.077	44807.33
622.842	44512.11
623.606	44352.2
624.37	44133.53
625.135	43878.22
625.899	43554.39
626.663	43171.9
627.427	42859.16
628.191	42448.94
628.955	42110.38
629.719	41857.85
630.483	41601.06
631.246	41168.68
632.01	40713.65
632.773	40341.79
633.537	39781.83
634.3	39315.16
635.063	38935.51
635.827	38538.81
636.59	37974.34
637.353	37564.29
638.116	37101.24
638.879	36743.54
639.641	36266.37
640.404	35921.82
641.167	35400.02
641.929	35007.96
642.692	34548.6
643.454	34301.44
644.216	33994.09
644.979	33640.49
645.741	33270.83
646.503	33050.84
647.265	32876.53
648.027	32592.82
648.789	32395.24
649.551	32065.26
650.312	31502.4
651.074	30810.92
651.835	30357.25
652.597	29923.32
653.358	29587.07
654.12	29237.69
654.881	28963.76
655.642	28747.03
656.403	28457.1
657.164	28355.99
657.925	28169.56
658.686	28128.07
659.447	28034.7
660.207	27925.02
660.968	27925.98
661.728	27910.27
662.489	27940.47
663.249	28006.71
664.01	28124.32
664.77	28096.84
665.53	28164.59
666.29	28268.57
667.05	28315.39
667.81	28357.62
668.57	28414.87
669.329	28450.92
670.089	28554.96
670.849	28713.71
671.608	28678.43
672.368	28700.92
673.127	28645.27
673.886	28555.41
674.646	28527.78
675.405	28438.2
676.164	28301.52
676.923	28183.12
677.682	28009.59
678.44	27838.3
679.199	27704.61
679.958	27637.3
680.717	27740.26
681.475	28146.09
682.233	28865.02
682.992	28861.96
683.75	28203.23
684.508	27483.48
685.266	26773.28
686.024	26265.6
686.782	25895.57
687.54	25577.25
688.298	25166.92
689.056	24780.31
689.814	24316.77
690.571	23760.22
691.329	23195.52
692.086	22652.84
692.843	22140.11
693.601	21753.05
694.358	21331.05
695.115	20855.95
695.872	20494.57
696.629	20118.31
697.386	19816.75
698.143	19461.4
698.9	19212.05
699.656	19027.93
700.413	18845.89
701.169	18658.39
701.926	18502.71
702.682	18331.08
703.438	18104.6
704.195	17984.11
704.951	17810.27
705.707	17650.42
706.463	17573.85
707.219	17596.88
707.974	17507.1
708.73	17487.12
709.486	17464.23
710.241	17344.1
710.997	17293.78
711.752	17100.29
712.508	16870.3
713.263	16482.65
714.018	16065.48
714.773	15590.97
715.528	15127.82
716.283	14633.74
717.038	14168.55
717.793	13706.35
718.548	13173.75
719.303	12626.18
720.057	12050.57
720.812	11597.27
721.566	11234.77
722.321	10813.79
723.075	10487.93
723.829	10200.48
724.583	9960.62
725.337	9791.47
726.091	9587.15
726.845	9416.78
727.599	9339.78
728.353	9188.59
729.106	9021.59
729.86	8926.88
730.614	8886.47
731.367	9128.41
732.12	8998.74
732.874	8818.04
733.627	8458.59
734.38	7973.74
735.133	7575.7
735.886	7216.85
736.639	6982.36
737.392	6790.24
738.145	6690.01
738.897	6586.56
739.65	6522.62
740.403	6357.49
741.155	6161.11
741.907	5865.88
742.66	5420.6
743.412	4850.52
744.164	4235.72
744.916	3462.01
745.668	2576.43
746.42	1731.33
747.172	1041.77
747.924	538.25
748.676	298.62
749.427	211.51
750.179	157.18
750.93	154.11
751.682	130.56
752.433	126.44
753.184	96.71
753.935	110.06
754.687	98.79
755.438	97.75
756.189	88.53
756.939	90.58
757.69	94.69
758.441	102.88
759.192	84.43
759.942	84.43
760.693	73.15
761.443	87.5
762.194	88.54
762.944	96.74
763.694	63.93
764.444	86.49
765.194	93.65
765.944	60.86
766.694	61.88
767.444	64.95
768.194	67
768.943	75.22
769.693	45.48
770.443	65.98
771.192	46.51
771.941	75.22
772.691	45.48
773.44	51.63
774.189	50.61
774.938	48.56
775.687	56.76
776.436	38.31
777.185	44.46
777.934	51.64
778.683	57.78
779.431	53.69
780.18	54.7
780.928	58.81
781.677	36.26
782.425	49.58
783.173	41.38
783.922	62.9
784.67	55.72
785.418	29.08
786.166	60.85
786.914	61.89
787.661	34.21
788.409	39.33
789.157	53.69
789.904	46.51
790.652	56.75
791.399	43.43
792.147	48.56
792.894	52.66
793.641	49.59
794.388	289.2
795.136	55.73
795.883	67.01
796.629	33.18
797.376	30.11
798.123	47.54
798.87	43.44
799.616	21.91
800.363	41.38
801.109	23.96
801.856	28.06
802.602	28.07
803.349	36.26
804.095	26.01
804.841	32.16
805.587	29.09
806.333	37.28
807.079	29.08
807.825	38.31
808.57	14.73
809.316	38.3
810.062	9.61
810.807	9.61
811.553	24.98
812.298	23.96
813.043	20.88
813.788	26.01
814.534	26.01
815.279	22.93
816.024	19.86
816.769	24.98
817.514	16.78
818.258	14.73
819.003	35.23
819.748	16.43
820.492	32.16
821.237	-36.28
821.981	26.01
822.726	11.66
823.47	19.86
824.214	32.16
824.958	2.43
825.702	-8.84
826.446	21.91
827.19	33.18
827.934	7.56
828.678	27.03
829.421	22.93
830.165	5.51
830.909	33.18
831.652	13.71
832.395	18.83
833.139	14.73
833.882	6.53
834.625	19.86
835.368	12.68
836.111	11.66
836.854	-5.77
837.597	30.11
838.34	7.56
839.083	32.16
839.825	13.71
840.568	34.21
841.311	15.76
842.053	7.56
842.795	18.84
843.538	22.93
844.28	9.61
845.022	18.84
845.764	13.71
846.506	13.71
847.248	-6.79
847.99	12.68
848.732	11.66
849.474	8.58
850.215	7.56
850.957	9.61
851.698	6.53
852.44	16.78
853.181	17.81
853.922	17.81
854.664	21.91
855.405	7.56
856.146	-5.77
856.887	8.58
857.628	-1.67
858.369	15.76
859.109	-4.74
859.85	15.76
860.591	21.91
861.331	-0.64
862.072	12.69
862.812	11.66
863.553	9.61
864.293	8.58
865.033	5.51
865.773	30.11
866.513	6.54
867.253	8.59
867.993	13.71
868.733	-2.69
869.473	7.56
870.213	-4.74
870.952	12.69
871.692	3.46
872.431	19.86
873.171	10.64
873.91	9.61
874.649	11.66
875.388	8.58
876.128	11.66
876.867	0.38
877.606	-11.92
878.345	4.48
879.083	10.64
879.822	-2.69
880.561	3.46
881.299	8.59
882.038	0.38
882.777	26.01
883.515	7.56
884.253	218.15
884.992	-4.74
885.73	6.53
886.468	19.86
887.206	6.53
887.944	0.38
888.682	-1.67
889.42	-3.72
890.157	15.76
890.895	16.79
891.633	-20.1
892.37	-9.87
893.108	-8.84
893.845	-3.72
894.583	-13.97
895.32	0.38
896.057	0.38
896.794	2.43
897.531	0.38
898.268	-13.97
899.005	-12.94
899.742	11.66
900.479	-4.74
901.215	2.43
901.952	9.61
902.689	-7.82
903.425	7.56
904.162	10.64
904.898	-7.82
905.634	1.41
906.37	-4.74
907.106	16.79
907.843	12.68
908.579	-8.84
909.314	9.61
910.05	-14.99
910.786	-5.77
911.522	-12.94
912.257	-32.42
912.993	-4.74
913.728	8.59
914.464	-7.82
915.199	-4.74
915.935	-10.89
916.67	-6.79
917.405	-23.19
918.14	-9.87
918.875	-3.72
919.61	-10.89
920.345	-8.84
921.08	-36.51
921.814	2.43
922.549	-1.67
923.284	-12.94
924.018	-8.84
924.752	-19.09
925.487	-8.84
926.221	-13.97
926.955	6.53
927.69	-1.67
928.424	0.38
929.158	4.48
929.892	-7.82
930.625	3.46
931.359	12.68
932.093	11.66
932.827	7.56
933.56	-8.84
934.294	-12.94
935.027	-5.77
935.761	-8.84
936.494	3.46
937.227	-14.99
937.96	-23.19
938.693	-9.87
939.426	-0.64
940.159	-25.24
940.892	-5.77
941.625	-12.94
942.358	-12.94
943.091	-9.87
943.823	-7.82
944.556	-14.99
945.288	10.64
946.021	-11.92
946.753	-6.79
947.485	-19.09
948.217	-6.79
948.95	-19.09
949.682	8.59
950.414	-0.64
951.146	-8.84
951.877	-3.72
952.609	36.26
953.341	-6.79
954.073	-10.89
954.804	-1.67
955.536	-5.77
956.267	-17.04
956.998	-0.64
957.73	-25.24
958.461	-7.82
959.192	4.49
959.923	-2.69
960.654	3.46
961.385	19.86
962.116	-12.94
962.847	-6.79
963.578	-2.69
964.308	-5.77
965.039	-10.89
965.769	1.41
966.5	-0.64
967.23	13.71
967.961	4.48
968.691	-4.74
969.421	-1.67
970.151	-26.27
970.881	-19.09
971.611	-18.07
972.341	-22.17
973.071	-16.02
973.801	-2.69
974.53	-1.67
975.26	-8.84
975.99	-17.04
976.719	-13.97
977.448	14.74
978.178	-9.87
978.907	7.56
979.636	-4.74
980.365	-3.72
981.095	-10.89
981.824	-23.19
982.553	-6.79
983.281	-11.92
984.01	-1.67
984.739	3.46
985.468	-5.77
986.196	1.41
986.925	2.43
987.653	-4.74
988.382	22.93
989.11	1.41
989.838	28.06
990.566	28.06
991.295	-12.94
992.023	-1.67
992.751	-6.79
993.478	5.51
994.206	12.68
994.934	-7.82
995.662	0.38
996.389	-2.69
997.117	-6.8
997.845	11.67
