Data from White_Subt2_009.txt Node
Date: Fri Aug 23 09:19:39 EDT 2019
User: wcc
Spectrometer: QEPB0759
Trigger mode: 0
Integration Time (sec): 1.000000E0
Scans to average: 1
Electric dark correction enabled: true
Nonlinearity correction enabled: true
Boxcar width: 0
XAxis mode: Wavelengths
Number of Pixels in Spectrum: 1044
>>>>>Begin Spectral Data<<<<<
197.938	17.55
198.749	18.58
199.559	12.43
200.369	21.66
201.179	25.75
201.988	6.28
202.798	17.55
203.608	11.4
204.417	11.4
205.227	34.98
206.036	23.7
206.846	7.3
207.655	-0.9
208.464	3.2
209.273	14.48
210.082	10.38
210.891	22.68
211.7	30.88
212.508	8.33
213.317	17.56
214.125	14.48
214.934	19.61
215.742	26.78
216.55	16.53
217.359	11.41
218.167	24.73
218.975	8.33
219.782	27.81
220.59	16.53
221.398	9.35
222.206	16.53
223.013	27.8
223.82	30.88
224.628	4.23
225.435	24.73
226.242	15.5
227.049	5.25
227.856	22.68
228.663	21.65
229.47	9.35
230.277	25.75
231.083	18.58
231.89	14.48
232.696	25.75
233.502	34.98
234.309	-2.95
235.115	17.55
235.921	21.65
236.727	30.88
237.533	2.18
238.339	9.35
239.144	12.43
239.95	22.67
240.756	29.85
241.561	-1.92
242.366	-5
243.172	28.83
243.977	26.78
244.782	-2.95
245.587	29.85
246.392	23.7
247.197	9.35
248.001	26.78
248.806	28.83
249.611	10.38
250.415	28.83
251.219	23.7
252.024	28.83
252.828	20.63
253.632	24.73
254.436	43.18
255.24	11.4
256.044	31.9
256.848	23.7
257.651	18.58
258.455	7.3
259.258	9.35
260.062	-909.14
260.865	14.48
261.668	21.65
262.471	18.58
263.274	10.38
264.077	32.93
264.88	13.45
265.683	34.98
266.486	33.96
267.288	27.8
268.091	44.21
268.893	-7.05
269.696	30.88
270.498	21.65
271.3	6.28
272.102	25.75
272.904	17.55
273.706	36.01
274.508	25.76
275.309	15.5
276.111	29.85
276.913	32.93
277.714	14.48
278.515	3.2
279.317	34.98
280.118	29.86
280.919	26.78
281.72	38.06
282.521	17.55
283.322	33.96
284.122	23.7
284.923	17.55
285.724	38.06
286.524	15.5
287.325	10.38
288.125	8.33
288.925	20.63
289.725	-8.07
290.525	31.9
291.325	13.45
292.125	30.88
292.925	9.35
293.724	27.81
294.524	9.35
295.324	21.66
296.123	12.43
296.922	27.8
297.722	42.14
298.521	16.53
299.32	28.83
300.119	10.38
300.918	0.13
301.716	37.02
302.515	17.55
303.314	18.58
304.112	13.45
304.911	25.75
305.709	17.55
306.507	20.63
307.306	6.28
308.104	15.5
308.902	25.75
309.7	27.8
310.498	14.48
311.295	17.56
312.093	17.55
312.891	23.7
313.688	26.78
314.485	27.8
315.283	39.07
316.08	15.5
316.877	14.48
317.674	26.78
318.471	10.38
319.268	25.76
320.065	20.63
320.862	8.33
321.658	39.08
322.455	45.23
323.251	5.25
324.047	19.61
324.844	22.68
325.64	33.96
326.436	28.83
327.232	11.4
328.028	24.73
328.824	27.81
329.62	16.53
330.415	23.7
331.211	31.9
332.006	26.78
332.802	7.3
333.597	21.65
334.392	21.65
335.187	30.88
335.982	50.36
336.777	38.05
337.572	11.4
338.367	13.45
339.162	17.55
339.956	32.93
340.751	21.65
341.545	26.78
342.34	20.63
343.134	24.73
343.928	17.55
344.722	23.7
345.516	26.78
346.31	7.3
347.104	25.75
347.898	28.83
348.691	14.48
349.485	33.96
350.278	9.35
351.072	26.77
351.865	-487.53
352.658	42.15
353.452	26.78
354.245	17.55
355.038	19.6
355.83	28.83
356.623	25.75
357.416	28.83
358.209	43.18
359.001	25.76
359.794	26.78
360.586	8.33
361.378	21.65
362.17	38.05
362.963	17.56
363.755	43.17
364.546	20.63
365.338	26.78
366.13	41.13
366.922	31.9
367.713	26.78
368.505	22.68
369.296	45.23
370.088	50.36
370.879	33.96
371.67	26.78
372.461	53.43
373.252	50.35
374.043	40.1
374.834	56.51
375.625	68.8
376.415	73.92
377.206	87.25
377.996	108.78
378.787	123.1
379.577	155.93
380.367	191.81
381.157	224.56
381.947	258.39
382.737	298.34
383.527	359.78
384.317	427.35
385.107	496.05
385.896	538.96
386.686	628.07
387.475	747.81
388.265	851.27
389.054	972.61
389.843	1092.68
390.632	1241.91
391.421	1374.78
392.21	1528.04
392.999	1673.33
393.788	1868.25
394.576	2061.06
395.365	2248.77
396.154	2504.95
396.942	2694.65
397.73	2920.59
398.519	3107.98
399.307	3332.86
400.095	3491.49
400.883	3723.91
401.671	3925.77
402.459	4182.73
403.246	4420.64
404.034	4644.88
404.822	4889.2
405.609	5140.09
406.396	5382.07
407.184	5517.1
407.971	5657.91
408.758	5820.94
409.545	5913.71
410.332	6028.18
411.119	6181.18
411.906	6342.96
412.693	6569.39
413.479	6770.38
414.266	7102.43
415.052	7458.98
415.839	7897.27
416.625	8281.51
417.411	8786.98
418.197	9256.97
418.983	9671.61
419.769	9890.9
420.555	9856.27
421.341	9751.91
422.127	9696.32
422.912	9587.99
423.698	9543.43
424.483	9555.75
425.269	9532.95
426.054	9686.59
426.839	9898.1
427.624	10160.45
428.409	10493.58
429.194	10887.17
429.979	11316.39
430.764	11716.49
431.549	12085.77
432.333	12459.52
433.118	12787.56
433.902	13106.57
434.687	13249.42
435.471	13454.87
436.255	13711.57
437.039	13915.85
437.823	14202.1
438.607	14288.61
439.391	14258.63
440.175	14236.98
440.958	14332.73
441.742	14498.39
442.526	14657.64
443.309	14843.7
444.092	15029.52
444.876	15236.59
445.659	15403.86
446.442	15604.88
447.225	15922.89
448.008	16523.03
448.791	17809.89
449.573	19476.27
450.356	19747.4
451.139	19185.33
451.921	19550.97
452.704	19483.76
453.486	19168.05
454.268	19563.62
455.05	20164.79
455.833	20817.37
456.615	21586.78
457.396	22352.18
458.178	22844.6
458.96	22886.87
459.742	23006.52
460.523	23460.14
461.305	24177.25
462.086	25035.15
462.868	25521.93
463.649	25458.93
464.43	25248.82
465.211	25538.54
465.992	26796.7
466.773	28971.88
467.554	30910.16
468.335	31105.7
469.115	30376.59
469.896	29460.21
470.676	28676.69
471.457	28735.51
472.237	30850.07
473.018	32809.81
473.798	31241.1
474.578	28859.24
475.358	28221.76
476.138	27979.9
476.918	28062.98
477.697	28416.33
478.477	29004.47
479.257	30059.01
480.036	31726.34
480.816	33239.5
481.595	33934.14
482.374	34037.65
483.153	34015.08
483.932	33708.4
484.711	33229.63
485.49	32989.1
486.269	33108.4
487.048	33431.16
487.827	34030.13
488.605	34695.52
489.384	35481.53
490.162	36835.59
490.941	39183.04
491.719	41541.12
492.497	42072.19
493.275	41300.61
494.053	40635.68
494.831	40004.44
495.609	39787.91
496.387	39766.1
497.164	39797.45
497.942	39934.65
498.72	40034.15
499.497	40270.66
500.274	40540.43
501.052	40803.72
501.829	41288.06
502.606	41649.56
503.383	41898.82
504.16	42093.25
504.937	42258.15
505.714	42353.9
506.49	42732.67
507.267	42878.44
508.043	43145.33
508.82	43451.91
509.596	43840.33
510.373	44201.55
511.149	44817.89
511.925	45247.9
512.701	45811.73
513.477	46222.65
514.253	46477.17
515.029	46937.24
515.804	47335.57
516.58	47691.88
517.356	48146.21
518.131	48741.33
518.906	49063.81
519.682	49517.51
520.457	49929.86
521.232	50261.86
522.007	50652.86
522.782	50919.22
523.557	51266.69
524.332	51488.47
525.107	51778.24
525.881	51879.44
526.656	52038.61
527.43	52240.14
528.205	52384.38
528.979	52419.24
529.753	52198.88
530.527	52067.29
531.302	52065.34
532.076	51916.06
532.849	51835.82
533.623	51645.3
534.397	51443.09
535.171	51119.39
535.944	50901.82
536.718	50713.09
537.491	50446.74
538.265	50319.17
539.038	50200.41
539.811	50184.4
540.584	50222.99
541.357	50318.74
542.13	50186
542.903	49959.05
543.676	49909.89
544.449	49786.82
545.221	49785.48
545.994	49804.66
546.766	49742.9
547.539	49707.18
548.311	49684.06
549.083	49737.02
549.855	49839.62
550.627	49928.75
551.399	50174.56
552.171	50401.27
552.943	50640.41
553.715	50859.53
554.486	51144.66
555.258	51486.47
556.029	51792.6
556.801	52137.62
557.572	52455.7
558.343	52895.63
559.114	53162.96
559.886	53575.64
560.657	53974.75
561.427	54322.43
562.198	54598.61
562.969	54858.79
563.74	55081.98
564.51	55236.97
565.281	55419.11
566.051	55751.51
566.822	55782.11
567.592	55864.91
568.362	55869.02
569.132	55751.4
569.902	55647.82
570.672	55335
571.442	55058.3
572.212	54741.63
572.982	54500.85
573.751	54297.27
574.521	53908.75
575.29	53724.97
576.06	53435.62
576.829	53069.34
577.598	52868.1
578.367	52550.59
579.136	52456.5
579.905	52201.96
580.674	52187.39
581.443	52061.98
582.212	51860.55
582.981	51811.28
583.749	51846.76
584.518	51768.49
585.286	51903.99
586.054	51826.62
586.823	51835.85
587.591	51792.21
588.359	51824.24
589.127	51829.73
589.895	51838.33
590.663	51670.52
591.431	51671.98
592.198	51616.38
592.966	51509.33
593.734	51367.38
594.501	51170.71
595.268	50921.44
596.036	50758.68
596.803	50577.7
597.57	50214.31
598.337	49858.37
599.104	49532.45
599.871	49252.71
600.638	48987.62
601.405	48634.58
602.171	48340.07
602.938	47908.63
603.704	47752.39
604.471	47449.88
605.237	47220.61
606.004	46959.01
606.77	46814.22
607.536	46680.95
608.302	46548.55
609.068	46504.97
609.834	46387.71
610.599	46277.47
611.365	46349.89
612.131	46282.04
612.896	46358.33
613.662	46307.15
614.427	46260.96
615.193	46215.04
615.958	46012.91
616.723	45859.82
617.488	45859.1
618.253	45650.39
619.018	45522.53
619.783	45300.94
620.548	45089.46
621.312	44955.92
622.077	44751.84
622.842	44669.53
623.606	44368.01
624.37	44166.41
625.135	43830.8
625.899	43541.1
626.663	43231.82
627.427	42781.72
628.191	42407.61
628.955	42097.11
629.719	41859.6
630.483	41484.7
631.246	41169.43
632.01	40747.39
632.773	40283.58
633.537	39803.55
634.3	39393.77
635.063	38879.4
635.827	38506.66
636.59	37992.02
637.353	37487.36
638.116	37117.92
638.879	36576.16
639.641	36236.29
640.404	35815.21
641.167	35378.91
641.929	35015.66
642.692	34606.92
643.454	34186.07
644.216	33832.11
644.979	33530.14
645.741	33272.57
646.503	33127.94
647.265	32904.05
648.027	32589.59
648.789	32365.26
649.551	32049.16
650.312	31433.8
651.074	30799.78
651.835	30269.86
652.597	29870.59
653.358	29545.23
654.12	29216.65
654.881	28867.47
655.642	28599.25
656.403	28484.58
657.164	28230.98
657.925	28086.13
658.686	28017.91
659.447	27981.97
660.207	27881.21
660.968	27963.36
661.728	27911.02
662.489	27872.88
663.249	27952.99
664.01	28044.86
664.77	28131.25
665.53	28225.73
666.29	28169.3
667.05	28354.75
667.81	28364.3
668.57	28438.39
669.329	28440.77
670.089	28528.96
670.849	28582.76
671.608	28670.26
672.368	28596.7
673.127	28537.09
673.886	28570.01
674.646	28524.56
675.405	28356.75
676.164	28293.35
676.923	28213.57
677.682	27954.88
678.44	27805.37
679.199	27701.39
679.958	27615.27
680.717	27673.66
681.475	28078.51
682.233	28729.12
682.992	28807.25
683.75	28197.04
684.508	27460.45
685.266	26756.2
686.024	26264.36
686.782	25864.6
687.54	25571.06
688.298	25224.16
689.056	24756.27
689.814	24213.39
690.571	23721.29
691.329	23222.07
692.086	22633.73
692.843	22159.73
693.601	21745.85
694.358	21287.08
695.115	20803.01
695.872	20352.12
696.629	20108.11
697.386	19762.77
698.143	19425.32
698.9	19205.83
699.656	19039.63
700.413	18879.5
701.169	18622.28
701.926	18473.57
702.682	18322.86
703.438	18110.33
704.195	17891.19
704.951	17790.09
705.707	17714.96
706.463	17620.46
707.219	17560.74
707.974	17493.89
708.73	17422.06
709.486	17424.1
710.241	17338.87
710.997	17300.51
711.752	17128.96
712.508	16856.08
713.263	16505.36
714.018	16088.19
714.773	15707.57
715.528	15140.56
716.283	14625.49
717.038	14182.3
717.793	13654.07
718.548	13191.52
719.303	12632.94
720.057	12052.32
720.812	11592.01
721.566	11181.33
722.321	10783.42
723.075	10491.7
723.829	10190.18
724.583	9944.28
725.337	9733.91
726.091	9571.82
726.845	9417.53
727.599	9321.42
728.353	9186.33
729.106	8979.06
729.86	8918.57
730.614	8879.17
731.367	8679.41
732.12	8995.47
732.874	8795.64
733.627	8407.97
734.38	8014.82
735.133	7587.55
735.886	7251.93
736.639	6967.97
737.392	6786.96
738.145	6705.92
738.897	6576.2
739.65	6513.27
740.403	6346.11
741.155	6179.06
741.907	5870.69
742.66	5447.69
743.412	4857.36
744.164	4213.12
744.916	3445.48
745.668	2589.42
746.42	1744.35
747.172	1042.54
747.924	534.92
748.676	289.14
749.427	199.98
750.179	169.22
750.93	142.58
751.682	134.41
752.433	107.74
753.184	99.53
753.935	108.78
754.687	107.76
755.438	93.39
756.189	83.15
756.939	103.65
757.69	96.48
758.441	89.3
759.192	81.1
759.942	96.47
760.693	74.95
761.443	82.12
762.194	88.28
762.944	86.23
763.694	83.14
764.444	99.55
765.194	101.6
765.944	82.12
766.694	66.75
767.444	61.62
768.194	69.82
768.943	56.51
769.693	46.25
770.443	61.62
771.192	50.35
771.941	58.56
772.691	34.98
773.44	47.28
774.189	55.47
774.938	53.43
775.687	54.45
776.436	30.88
777.185	50.35
777.934	49.33
778.683	42.15
779.431	48.3
780.18	42.15
780.928	47.28
781.677	48.3
782.425	62.65
783.173	55.47
783.922	41.13
784.67	60.59
785.418	40.1
786.166	51.37
786.914	62.66
787.661	56.5
788.409	37.03
789.157	61.63
789.904	45.23
790.652	57.52
791.399	38.05
792.147	52.4
792.894	56.5
793.641	45.23
794.388	234.04
795.136	57.53
795.883	55.48
796.629	43.17
797.376	24.73
798.123	41.13
798.87	54.46
799.616	28.83
800.363	41.12
801.109	25.75
801.856	30.88
802.602	25.76
803.349	24.73
804.095	36
804.841	22.68
805.587	30.88
806.333	38.05
807.079	25.75
807.825	41.13
808.57	19.6
809.316	31.9
810.062	12.43
810.807	22.68
811.553	43.17
812.298	19.6
813.043	30.88
813.788	22.68
814.534	39.08
815.279	19.6
816.024	23.7
816.769	21.65
817.514	20.63
818.258	8.33
819.003	31.9
819.748	65.32
820.492	18.58
821.237	-37.55
821.981	31.9
822.726	10.38
823.47	12.43
824.214	16.53
824.958	-1.92
825.702	-3.97
826.446	9.35
827.19	33.95
827.934	3.2
828.678	18.58
829.421	27.8
830.165	3.2
830.909	32.93
831.652	13.45
832.395	-2.95
833.139	23.7
833.882	3.2
834.625	23.7
835.368	17.55
836.111	24.73
836.854	-6.02
837.597	24.73
838.34	11.4
839.083	20.63
839.825	8.33
840.568	26.78
841.311	19.6
842.053	15.5
842.795	10.38
843.538	19.6
844.28	8.33
845.022	18.58
845.764	13.45
846.506	20.63
847.248	-5
847.99	2.18
848.732	11.4
849.474	6.28
850.215	11.4
850.957	15.51
851.698	3.2
852.44	4.23
853.181	16.53
853.922	9.35
854.664	36
855.405	0.13
856.146	9.35
856.887	23.7
857.628	1.15
858.369	16.53
859.109	2.18
859.85	7.3
860.591	28.83
861.331	11.4
862.072	15.51
862.812	3.2
863.553	11.4
864.293	9.35
865.033	5.25
865.773	21.65
866.513	23.71
867.253	11.4
867.993	26.78
868.733	0.13
869.473	0.13
870.213	-10.12
870.952	5.25
871.692	-1.92
872.431	15.5
873.171	3.2
873.91	12.43
874.649	11.41
875.388	21.65
876.128	-2.95
876.867	5.25
877.606	1.15
878.345	6.28
879.083	11.4
879.822	4.23
880.561	-10.12
881.299	-7.05
882.038	-6.02
882.777	23.7
883.515	4.23
884.253	139.91
884.992	-11.15
885.73	3.2
886.468	16.53
887.206	3.2
887.944	-10.12
888.682	-1.92
889.42	-6.02
890.157	9.35
890.895	10.38
891.633	-12.16
892.37	-7.05
893.108	-15.25
893.845	-5
894.583	-2.95
895.32	10.38
896.057	7.3
896.794	9.35
897.531	-10.12
898.268	-1.92
899.005	-11.15
899.742	-7.05
900.479	-8.07
901.215	-0.9
901.952	-1.92
902.689	-9.1
903.425	7.3
904.162	11.41
904.898	0.13
905.634	1.15
906.37	2.18
907.106	4.23
907.843	2.18
908.579	4.23
909.314	5.25
910.05	-6.02
910.786	-10.12
911.522	-7.05
912.257	-29.6
912.993	1.15
913.728	3.2
914.464	-2.95
915.199	5.25
915.935	-3.97
916.67	-14.22
917.405	-14.22
918.14	-10.12
918.875	12.43
919.61	-2.95
920.345	6.28
921.08	-23.44
921.814	9.35
922.549	-3.97
923.284	-24.47
924.018	-15.25
924.752	-9.1
925.487	-16.27
926.221	-1.92
926.955	-0.9
927.69	-1.92
928.424	-2.95
929.158	-20.37
929.892	-5
930.625	-0.9
931.359	4.23
932.093	9.35
932.827	-7.05
933.56	-12.17
934.294	6.28
935.027	-7.05
935.761	-1.92
936.494	-5
937.227	-22.42
937.96	-10.12
938.693	-11.15
939.426	7.3
940.159	-13.2
940.892	3.2
941.625	6.28
942.358	0.13
943.091	-15.25
943.823	-7.05
944.556	-5
945.288	3.2
946.021	-9.1
946.753	-11.15
947.485	-6.02
948.217	1.15
948.95	-19.35
949.682	-6.02
950.414	-12.17
951.146	-10.12
951.877	-1.92
952.609	31.91
953.341	-11.15
954.073	-1.92
954.804	-7.05
955.536	3.2
956.267	-10.12
956.998	20.63
957.73	-11.15
958.461	-26.53
959.192	17.56
959.923	-1.92
960.654	-3.97
961.385	10.38
962.116	0.13
962.847	-6.02
963.578	-0.9
964.308	-12.17
965.039	5.25
965.769	-9.1
966.5	-14.22
967.23	-5
967.961	2.18
968.691	-10.12
969.421	-6.02
970.151	-23.45
970.881	-14.22
971.611	-23.45
972.341	-16.27
973.071	-23.45
973.801	-17.3
974.53	-2.95
975.26	-6.02
975.99	-1.92
976.719	-11.15
977.448	2.18
978.178	0.13
978.907	11.4
979.636	9.35
980.365	3.2
981.095	16.53
981.824	-16.27
982.553	-7.05
983.281	-10.12
984.01	-2.95
984.739	7.31
985.468	-8.08
986.196	-2.95
986.925	10.37
987.653	11.4
988.382	23.7
989.11	0.13
989.838	12.43
990.566	28.82
991.295	-13.2
992.023	-7.05
992.751	1.15
993.478	3.2
994.206	1.15
994.934	-8.07
995.662	0.13
996.389	5.26
997.117	-9.11
997.845	10.39
