Data from White_Bg_Subt2_008.txt Node
Date: Fri Aug 23 09:20:50 EDT 2019
User: wcc
Spectrometer: QEPB0759
Trigger mode: 0
Integration Time (sec): 1.000000E0
Scans to average: 1
Electric dark correction enabled: true
Nonlinearity correction enabled: true
Boxcar width: 0
XAxis mode: Wavelengths
Number of Pixels in Spectrum: 1044
>>>>>Begin Spectral Data<<<<<
197.938	-14.09
198.749	-26.4
199.559	-6.92
200.369	-2.82
201.179	-17.17
201.988	-21.27
202.798	-25.37
203.608	-30.5
204.417	-33.57
205.227	-17.17
206.036	-24.34
206.846	-24.34
207.655	-33.57
208.464	-21.27
209.273	-9.99
210.082	-14.1
210.891	-17.17
211.7	-17.17
212.508	-29.47
213.317	-13.07
214.125	-17.17
214.934	-22.3
215.742	-15.12
216.55	-16.15
217.359	-18.2
218.167	-27.42
218.975	-29.47
219.782	-3.84
220.59	-24.35
221.398	-12.05
222.206	-20.24
223.013	-11.02
223.82	-8.97
224.628	-16.15
225.435	-20.25
226.242	-19.22
227.049	-22.29
227.856	-13.07
228.663	-25.37
229.47	-11.02
230.277	-16.15
231.083	-13.07
231.89	-26.4
232.696	-25.37
233.502	-15.12
234.309	-26.4
235.115	-18.19
235.921	-19.22
236.727	-17.17
237.533	-36.64
238.339	-48.95
239.144	-25.37
239.95	-24.34
240.756	-22.3
241.561	-24.35
242.366	-27.42
243.172	-6.92
243.977	-13.07
244.782	-34.6
245.587	-8.97
246.392	-11.02
247.197	-22.3
248.001	-30.5
248.806	-15.12
249.611	-23.32
250.415	-17.17
251.219	-24.35
252.024	-13.07
252.828	-17.17
253.632	-20.25
254.436	-1.79
255.24	-19.22
256.044	-6.92
256.848	-17.17
257.651	-25.37
258.455	-40.75
259.258	-19.22
260.062	66.02
260.865	-17.17
261.668	-1.79
262.471	-26.4
263.274	-30.49
264.077	-21.27
264.88	-30.5
265.683	-8.97
266.486	-16.15
267.288	-16.14
268.091	-2.82
268.893	-54.07
269.696	-22.3
270.498	-20.25
271.3	-35.62
272.102	-8.97
272.904	-38.7
273.706	4.36
274.508	-30.5
275.309	-31.52
276.111	-11.02
276.913	-21.27
277.714	-19.22
278.515	-28.45
279.317	-21.27
280.118	-8.97
280.919	-23.32
281.72	-18.2
282.521	-27.42
283.322	-15.12
284.122	-23.32
284.923	-24.34
285.724	-11.02
286.524	-13.07
287.325	-43.82
288.125	-34.6
288.925	-24.35
289.725	-46.9
290.525	-27.42
291.325	-33.57
292.125	-28.45
292.925	-28.44
293.724	-13.07
294.524	-37.68
295.324	-8.97
296.123	-40.75
296.922	-15.12
297.722	-7.94
298.521	-16.14
299.32	-8.97
300.119	-42.8
300.918	-17.17
301.716	-8.97
302.515	-34.6
303.314	-19.22
304.112	-26.4
304.911	-26.39
305.709	-15.12
306.507	-7.94
307.306	-36.65
308.104	-29.47
308.902	-29.47
309.7	-37.67
310.498	-22.29
311.295	-30.5
312.093	-23.32
312.891	-33.57
313.688	-18.19
314.485	-22.3
315.283	-23.32
316.08	-12.04
316.877	-28.45
317.674	-9.99
318.471	-43.83
319.268	-14.1
320.065	-15.12
320.862	-28.44
321.658	-8.97
322.455	9.48
323.251	-29.47
324.047	-24.35
324.844	-25.37
325.64	-16.15
326.436	-9.99
327.232	-41.77
328.028	-17.17
328.824	-14.1
329.62	-27.42
330.415	-21.27
331.211	-17.17
332.006	-18.2
332.802	-27.42
333.597	-20.25
334.392	-17.17
335.187	-26.39
335.982	-2.82
336.777	-7.94
337.572	-26.4
338.367	-7.94
339.162	-34.59
339.956	-2.82
340.751	-29.47
341.545	-28.44
342.34	-24.34
343.134	-20.25
343.928	-25.37
344.722	-17.17
345.516	-18.2
346.31	-23.32
347.104	-20.24
347.898	-22.3
348.691	-32.55
349.485	-10
350.278	-25.37
351.072	-22.29
351.865	-412.34
352.658	-11.02
353.452	-17.17
354.245	-22.3
355.038	-30.5
355.83	-8.97
356.623	-30.5
357.416	-23.32
358.209	-14.1
359.001	-29.47
359.794	-16.14
360.586	-28.44
361.378	-28.44
362.17	-21.27
362.963	-16.15
363.755	-9.99
364.546	-21.27
365.338	-7.94
366.13	-15.12
366.922	-31.52
367.713	-23.32
368.505	-14.09
369.296	-18.2
370.088	-3.84
370.879	-22.3
371.67	-25.37
372.461	-15.12
373.252	-22.3
374.043	-26.39
374.834	-16.15
375.625	-25.37
376.415	-31.52
377.206	-20.24
377.996	-24.35
378.787	-21.27
379.577	-28.45
380.367	-12.05
381.157	-14.09
381.947	-12.05
382.737	-14.09
383.527	-18.19
384.317	-25.37
385.107	-5.89
385.896	-39.72
386.686	-24.34
387.475	-23.32
388.265	-12.05
389.054	-16.14
389.843	-16.15
390.632	-14.09
391.421	-34.6
392.21	-20.24
392.999	-12.05
393.788	-23.32
394.576	-18.19
395.365	-27.42
396.154	4.36
396.942	-15.12
397.73	-31.52
398.519	-6.92
399.307	-11.02
400.095	-42.8
400.883	-18.19
401.671	-27.42
402.459	-7.94
403.246	-26.4
404.034	-17.17
404.822	-30.5
405.609	-34.59
406.396	-17.17
407.184	-29.47
407.971	-28.44
408.758	-21.27
409.545	-22.3
410.332	-31.52
411.119	-15.12
411.906	-25.37
412.693	-18.19
413.479	-17.17
414.266	-25.37
415.052	-32.54
415.839	-1.79
416.625	-31.52
417.411	-20.25
418.197	-17.17
418.983	-36.64
419.769	-7.94
420.555	-24.35
421.341	-8.97
422.127	-29.47
422.912	-21.27
423.698	-29.47
424.483	-34.6
425.269	-26.4
426.054	-29.47
426.839	-11.02
427.624	-9.99
428.409	-28.45
429.194	-9.99
429.979	-13.07
430.764	-11.02
431.549	-21.27
432.333	-39.72
433.118	-26.4
433.902	-36.64
434.687	-56.12
435.471	-68.42
436.255	-21.27
437.039	-16.15
437.823	-42.8
438.607	-17.17
439.391	-41.77
440.175	-33.57
440.958	-28.45
441.742	-27.42
442.526	-16.15
443.309	-20.24
444.092	-32.54
444.876	-23.32
445.659	-30.5
446.442	-39.72
447.225	-31.52
448.008	-28.44
448.791	-36.64
449.573	-2.82
450.356	-24.34
451.139	-29.47
451.921	-34.6
452.704	-17.17
453.486	-39.72
454.268	-23.32
455.05	-4.87
455.833	-20.25
456.615	-13.07
457.396	-15.12
458.178	-8.97
458.96	-19.22
459.742	-13.07
460.523	-30.5
461.305	-26.4
462.086	-20.24
462.868	-33.56
463.649	-23.32
464.43	-23.32
465.211	-14.09
465.992	-15.12
466.773	-19.22
467.554	-15.12
468.335	-6.92
469.115	-15.12
469.896	-18.2
470.676	-35.63
471.457	-44.85
472.237	-19.22
473.018	-27.42
473.798	-14.09
474.578	-6.92
475.358	-12.04
476.138	-16.15
476.918	-17.17
477.697	-30.5
478.477	-3.84
479.257	-6.92
480.036	-25.37
480.816	-38.7
481.595	-29.47
482.374	-28.45
483.153	-26.39
483.932	-23.32
484.711	-22.29
485.49	-43.82
486.269	-38.7
487.048	-60.23
487.827	-41.77
488.605	-46.9
489.384	-46.9
490.162	-25.37
490.941	-26.39
491.719	-24.35
492.497	-37.67
493.275	-30.5
494.053	-18.19
494.831	-36.65
495.609	-21.27
496.387	-27.42
497.164	-35.62
497.942	-21.27
498.72	-29.47
499.497	-36.65
500.274	-14.1
501.052	-32.55
501.829	-0.77
502.606	-17.17
503.383	-32.55
504.16	5.38
504.937	-18.19
505.714	-13.07
506.49	4.36
507.267	-12.05
508.043	-23.32
508.82	-23.32
509.596	6.41
510.373	-11.02
511.149	-17.17
511.925	-32.55
512.701	6.41
513.477	-15.12
514.253	-11.02
515.029	-27.42
515.804	-16.14
516.58	-3.84
517.356	-6.92
518.131	-12.04
518.906	11.53
519.682	7.43
520.457	-19.22
521.232	-4.87
522.007	-13.07
522.782	-13.07
523.557	4.36
524.332	-20.25
525.107	-3.84
525.881	-11.02
526.656	-8.97
527.43	-6.92
528.205	-24.35
528.979	-16.15
529.753	-1.79
530.527	10.51
531.302	-3.84
532.076	-24.34
532.849	0.26
533.623	-28.45
534.397	-7.94
535.171	-5.89
535.944	-14.09
536.718	-24.35
537.491	-9.99
538.265	-22.3
539.038	-26.39
539.811	-24.34
540.584	-46.9
541.357	-47.92
542.13	-59.19
542.903	-50.99
543.676	-64.32
544.449	-48.94
545.221	-48.94
545.994	-28.45
546.766	-25.37
547.539	-20.25
548.311	-50.99
549.083	-13.07
549.855	-16.15
550.627	-23.32
551.399	-27.42
552.171	-25.37
552.943	-11.02
553.715	-3.84
554.486	4.36
555.258	-0.77
556.029	-7.94
556.801	9.48
557.572	-4.87
558.343	1.28
559.114	6.41
559.886	-6.92
560.657	11.53
561.427	-3.84
562.198	-7.94
562.969	2.31
563.74	1.28
564.51	-1.79
565.281	-11.02
566.051	1.28
566.822	-4.87
567.592	-11.02
568.362	-1.79
569.132	-4.87
569.902	-2.82
570.672	7.43
571.442	3.33
572.212	-17.17
572.982	10.51
573.751	-3.84
574.521	-6.92
575.29	2.31
576.06	-6.92
576.829	-22.3
577.598	-7.94
578.367	-33.57
579.136	-5.89
579.905	-32.54
580.674	-20.24
581.443	-25.37
582.212	-15.12
582.981	-16.14
583.749	-14.1
584.518	-23.32
585.286	-3.84
586.054	-26.39
586.823	-18.19
587.591	-15.12
588.359	-22.29
589.127	-15.12
589.895	-4.87
590.663	-36.64
591.431	-26.39
592.198	-22.29
592.966	-3.84
593.734	-21.27
594.501	-15.12
595.268	5.38
596.036	-27.42
596.803	3.33
597.57	-2.82
598.337	-11.02
599.104	-34.6
599.871	-23.32
600.638	-11.02
601.405	-11.02
602.171	4.36
602.938	-29.46
603.704	-0.77
604.471	-21.27
605.237	-4.87
606.004	-22.29
606.77	-24.34
607.536	-12.04
608.302	-19.22
609.068	-55.09
609.834	-57.14
610.599	-119.65
611.365	-61.25
612.131	-68.42
612.896	-39.72
613.662	-50.99
614.427	-22.29
615.193	-46.89
615.958	-29.47
616.723	-29.47
617.488	-10
618.253	-4.87
619.018	-30.49
619.783	-39.72
620.548	-23.32
621.312	-25.37
622.077	-24.35
622.842	-33.57
623.606	-27.41
624.37	-28.44
625.135	-15.12
625.899	-11.02
626.663	-17.17
627.427	-21.27
628.191	-14.09
628.955	-37.66
629.719	-33.57
630.483	-47.92
631.246	-33.57
632.01	-28.45
632.773	-14.09
633.537	-7.94
634.3	-11.02
635.063	-7.94
635.827	0.26
636.59	-14.1
637.353	-32.54
638.116	-4.87
638.879	-1.79
639.641	-8.97
640.404	-11.02
641.167	-2.82
641.929	-9.99
642.692	-15.12
643.454	-0.77
644.216	-7.94
644.979	-35.62
645.741	-14.09
646.503	-3.84
647.265	-6.92
648.027	-14.09
648.789	-17.17
649.551	-20.24
650.312	-0.77
651.074	-4.87
651.835	-13.07
652.597	-22.29
653.358	-14.09
654.12	24.86
654.881	-8.97
655.642	-14.09
656.403	-27.42
657.164	-22.29
657.925	-19.22
658.686	-12.04
659.447	-6.92
660.207	-4.87
660.968	-4.87
661.728	-7.94
662.489	-18.19
663.249	-11.02
664.01	3.33
664.77	-14.09
665.53	2.31
666.29	-14.1
667.05	3.33
667.81	-4.87
668.57	-1.79
669.329	-15.12
670.089	-21.27
670.849	-3.84
671.608	9.48
672.368	0.26
673.127	-7.94
673.886	-0.77
674.646	-6.92
675.405	-0.77
676.164	3.33
676.923	-3.84
677.682	-15.12
678.44	-0.77
679.199	0.26
679.958	-31.51
680.717	2.31
681.475	4.36
682.233	16.66
682.992	-1.79
683.75	-20.25
684.508	-7.94
685.266	-8.97
686.024	-3.84
686.782	0.26
687.54	6.41
688.298	-1.79
689.056	-11.02
689.814	-1.79
690.571	-3.84
691.329	-8.97
692.086	-8.97
692.843	6.41
693.601	11.53
694.358	-5.89
695.115	7.43
695.872	7.43
696.629	-5.89
697.386	-8.97
698.143	10.51
698.9	-18.2
699.656	-0.77
700.413	-2.82
701.169	11.53
701.926	0.26
702.682	1.28
703.438	6.41
704.195	-17.17
704.951	-15.12
705.707	-27.42
706.463	-16.15
707.219	-26.4
707.974	-33.57
708.73	-33.57
709.486	-17.17
710.241	-17.17
710.997	-20.25
711.752	-26.39
712.508	-15.12
713.263	-4.87
714.018	-0.77
714.773	-7.94
715.528	6.41
716.283	-16.14
717.038	-24.35
717.793	-29.47
718.548	-19.22
719.303	5.38
720.057	-17.17
720.812	-16.15
721.566	-7.95
722.321	-30.5
723.075	-21.27
723.829	-9.99
724.583	-4.87
725.337	-14.1
726.091	0.26
726.845	-8.97
727.599	-22.3
728.353	-18.19
729.106	-24.35
729.86	-15.12
730.614	-31.52
731.367	-244.77
732.12	-13.07
732.874	-14.1
733.627	-18.19
734.38	-19.22
735.133	-17.17
735.886	-8.97
736.639	-26.4
737.392	-19.22
738.145	-3.84
738.897	-16.14
739.65	-8.97
740.403	-29.47
741.155	-27.42
741.907	-11.02
742.66	-22.29
743.412	-7.95
744.164	-7.94
744.916	-20.25
745.668	-23.32
746.42	-22.29
747.172	-19.22
747.924	-15.12
748.676	-13.07
749.427	-14.09
750.179	-20.24
750.93	3.33
751.682	-0.77
752.433	-15.12
753.184	-29.47
753.935	-19.22
754.687	-22.3
755.438	-24.34
756.189	-12.04
756.939	-24.35
757.69	-13.07
758.441	-8.97
759.192	-26.4
759.942	-24.34
760.693	-20.24
761.443	-17.17
762.194	-15.12
762.944	-14.1
763.694	-34.59
764.444	-14.1
765.194	-15.12
765.944	-13.07
766.694	-28.44
767.444	-9.99
768.194	-26.39
768.943	-19.22
769.693	-35.62
770.443	-24.34
771.192	-40.74
771.941	-11.02
772.691	-45.87
773.44	-37.67
774.189	-7.94
774.938	-22.29
775.687	-23.32
776.436	-33.57
777.185	-9.99
777.934	-19.22
778.683	-25.37
779.431	-24.35
780.18	-29.47
780.928	-8.97
781.677	-33.57
782.425	-23.32
783.173	-36.64
783.922	-36.64
784.67	-18.19
785.418	-42.79
786.166	-9.99
786.914	-22.3
787.661	-22.29
788.409	-27.42
789.157	-20.25
789.904	-19.22
790.652	-17.17
791.399	-18.19
792.147	-18.19
792.894	-14.09
793.641	-21.27
794.388	-0.76
795.136	-12.04
795.883	-1.79
796.629	-23.32
797.376	-37.68
798.123	-17.17
798.87	-18.2
799.616	-34.6
800.363	-23.32
801.109	-26.39
801.856	-34.59
802.602	-18.2
803.349	-19.22
804.095	-15.12
804.841	-33.57
805.587	-21.27
806.333	-28.44
807.079	-23.32
807.825	-8.97
808.57	-40.75
809.316	-15.12
810.062	-31.52
810.807	-25.37
811.553	-14.09
812.298	-26.39
813.043	-30.49
813.788	-28.44
814.534	-18.19
815.279	-26.39
816.024	-33.57
816.769	-12.04
817.514	-8.97
818.258	-29.47
819.003	-14.09
819.748	-245.54
820.492	-5.89
821.237	-70.01
821.981	0.26
822.726	-37.67
823.47	-27.42
824.214	-17.17
824.958	-56.12
825.702	-43.82
826.446	-23.32
827.19	-6.92
827.934	-27.42
828.678	0.26
829.421	-21.27
830.165	-25.37
830.909	-11.02
831.652	-22.29
832.395	-34.59
833.139	-28.44
833.882	-20.24
834.625	-27.42
835.368	-26.39
836.111	-8.97
836.854	-42.8
837.597	-22.29
838.34	-22.29
839.083	-3.84
839.825	-36.64
840.568	-10
841.311	-20.24
842.053	-21.27
842.795	-17.17
843.538	-24.35
844.28	-14.1
845.022	-11.02
845.764	-31.51
846.506	-15.12
847.248	-43.82
847.99	-29.47
848.732	-27.42
849.474	-30.5
850.215	-16.15
850.957	-25.37
851.698	-30.5
852.44	-21.27
853.181	-22.3
853.922	-23.32
854.664	-9.99
855.405	-28.44
856.146	-19.22
856.887	-15.12
857.628	-32.54
858.369	-14.1
859.109	-22.29
859.85	-27.42
860.591	-20.24
861.331	-36.65
862.072	-13.07
862.812	-22.3
863.553	-14.1
864.293	-31.52
865.033	-34.6
865.773	-14.09
866.513	-6.92
867.253	-13.07
867.993	-26.4
868.733	-25.37
869.473	-30.49
870.213	-34.59
870.952	-25.37
871.692	-32.55
872.431	-15.12
873.171	-27.42
873.91	-20.25
874.649	-18.2
875.388	-11.02
876.128	-22.3
876.867	-34.6
877.606	-30.5
878.345	-31.52
879.083	-10
879.822	-20.25
880.561	-45.87
881.299	-23.32
882.038	-20.25
882.777	-7.94
883.515	-24.34
884.253	-15.96
884.992	-19.22
885.73	-28.45
886.468	-6.92
887.206	-26.39
887.944	-9.99
888.682	-25.37
889.42	-31.52
890.157	-5.89
890.895	-6.92
891.633	-34.56
892.37	-36.65
893.108	-30.49
893.845	-24.35
894.583	-28.45
895.32	6.41
896.057	-23.32
896.794	-19.22
897.531	-45.87
898.268	-35.62
899.005	-33.57
899.742	-23.32
900.479	-27.42
901.215	-17.17
901.952	-19.22
902.689	-27.42
903.425	-10
904.162	-12.05
904.898	-27.42
905.634	-24.34
906.37	-18.2
907.106	-13.07
907.843	-15.12
908.579	-21.27
909.314	-10
910.05	-23.32
910.786	-39.72
911.522	-37.68
912.257	-46.89
912.993	-16.15
913.728	-22.3
914.464	-23.32
915.199	-23.32
915.935	-22.3
916.67	-34.6
917.405	-32.54
918.14	-34.6
918.875	-13.07
919.61	-13.07
920.345	-19.22
921.08	-35.62
921.814	-13.07
922.549	-13.07
923.284	-35.62
924.018	-27.42
924.752	-34.59
925.487	-8.97
926.221	-20.24
926.955	-25.37
927.69	-31.52
928.424	-22.3
929.158	-24.35
929.892	-34.6
930.625	-8.97
931.359	-25.37
932.093	-17.17
932.827	-27.42
933.56	-30.5
934.294	-17.17
935.027	-14.09
935.761	-26.39
936.494	-20.25
937.227	-35.62
937.96	-22.29
938.693	-25.37
939.426	-24.35
940.159	-31.52
940.892	-17.17
941.625	-28.44
942.358	-25.37
943.091	-40.75
943.823	-26.4
944.556	-29.48
945.288	2.31
946.021	-19.22
946.753	-8.97
947.485	-27.42
948.217	0.26
948.95	-34.6
949.682	-16.15
950.414	-28.45
951.146	-32.55
951.877	-5.89
952.609	6.41
953.341	-25.37
954.073	-36.64
954.804	-23.32
955.536	-13.07
956.267	-24.34
956.998	-0.77
957.73	-28.45
958.461	-11.02
959.192	-10
959.923	-17.17
960.654	-1.79
961.385	-3.84
962.116	-17.17
962.847	-20.25
963.578	-13.07
964.308	-19.22
965.039	-19.22
965.769	-25.37
966.5	-16.14
967.23	-5.89
967.961	-20.25
968.691	-20.24
969.421	-29.48
970.151	-28.44
970.881	-34.6
971.611	-28.44
972.341	-30.5
973.071	-27.42
973.801	-18.19
974.53	-14.1
975.26	-18.2
975.99	-37.67
976.719	-29.47
977.448	-8.97
978.178	-37.67
978.907	-24.35
979.636	-20.25
980.365	-13.07
981.095	-13.07
981.824	-33.57
982.553	-26.4
983.281	-14.1
984.01	-4.87
984.739	9.49
985.468	-1.8
986.196	5.39
986.925	-31.51
987.653	-11.02
988.382	-21.27
989.11	-29.47
989.838	-13.07
990.566	-23.32
991.295	-17.17
992.023	-21.27
992.751	-18.19
993.478	-2.82
994.206	-25.37
994.934	-23.32
995.662	-2.82
996.389	-5.9
997.117	-15.13
997.845	15.65
