Data from White_Subt2_008.txt Node
Date: Fri Aug 23 09:19:38 EDT 2019
User: wcc
Spectrometer: QEPB0759
Trigger mode: 0
Integration Time (sec): 1.000000E0
Scans to average: 1
Electric dark correction enabled: true
Nonlinearity correction enabled: true
Boxcar width: 0
XAxis mode: Wavelengths
Number of Pixels in Spectrum: 1044
>>>>>Begin Spectral Data<<<<<
197.938	19.6
198.749	13.45
199.559	13.45
200.369	21.66
201.179	16.53
201.988	10.38
202.798	20.63
203.608	-2.95
204.417	12.43
205.227	18.58
206.036	16.53
206.846	20.63
207.655	2.18
208.464	13.45
209.273	24.73
210.082	18.58
210.891	20.63
211.7	14.48
212.508	1.15
213.317	18.58
214.125	13.46
214.934	18.58
215.742	18.58
216.55	33.96
217.359	16.53
218.167	31.91
218.975	8.33
219.782	26.78
220.59	12.43
221.398	23.71
222.206	12.43
223.013	27.8
223.82	19.61
224.628	6.28
225.435	16.53
226.242	18.58
227.049	9.35
227.856	17.56
228.663	15.5
229.47	24.73
230.277	16.53
231.083	21.66
231.89	7.3
232.696	-3.97
233.502	30.88
234.309	20.63
235.115	16.53
235.921	23.7
236.727	14.48
237.533	11.4
238.339	-2.95
239.144	16.53
239.95	5.25
240.756	16.53
241.561	0.13
242.366	5.25
243.172	27.8
243.977	23.7
244.782	-13.2
245.587	22.68
246.392	23.7
247.197	29.86
248.001	18.58
248.806	31.91
249.611	24.73
250.415	26.78
251.219	26.78
252.024	28.83
252.828	25.76
253.632	20.63
254.436	31.91
255.24	8.33
256.044	36
256.848	14.48
257.651	20.63
258.455	0.13
259.258	28.83
260.062	322.05
260.865	27.8
261.668	27.8
262.471	14.48
263.274	7.3
264.077	18.58
264.88	10.38
265.683	28.83
266.486	18.58
267.288	25.75
268.091	36.01
268.893	-10.12
269.696	23.7
270.498	22.68
271.3	11.4
272.102	11.4
272.904	7.3
273.706	30.88
274.508	28.83
275.309	14.48
276.111	32.93
276.913	39.08
277.714	31.91
278.515	12.43
279.317	24.73
280.118	38.06
280.919	18.58
281.72	23.7
282.521	24.73
283.322	29.86
284.122	29.85
284.923	22.68
285.724	19.61
286.524	23.7
287.325	7.3
288.125	10.38
288.925	20.63
289.725	16.53
290.525	23.7
291.325	16.53
292.125	19.6
292.925	19.6
293.724	38.06
294.524	8.33
295.324	28.83
296.123	20.63
296.922	19.6
297.722	35.99
298.521	23.7
299.32	25.75
300.119	4.23
300.918	14.48
301.716	28.82
302.515	16.53
303.314	20.63
304.112	11.4
304.911	21.65
305.709	26.78
306.507	26.78
307.306	11.4
308.104	29.85
308.902	19.6
309.7	29.85
310.498	12.43
311.295	15.51
312.093	10.38
312.891	14.48
313.688	25.75
314.485	34.98
315.283	27.8
316.08	37.03
316.877	15.5
317.674	22.68
318.471	1.15
319.268	21.66
320.065	19.6
320.862	13.45
321.658	33.95
322.455	51.38
323.251	8.33
324.047	14.48
324.844	15.5
325.64	36.01
326.436	25.75
327.232	3.2
328.028	19.6
328.824	31.91
329.62	25.75
330.415	25.75
331.211	19.6
332.006	34.98
332.802	13.45
333.597	21.65
334.392	26.78
335.187	26.78
335.982	39.08
336.777	30.88
337.572	8.33
338.367	21.65
339.162	13.45
339.956	39.08
340.751	32.93
341.545	10.38
342.34	18.58
343.134	37.03
343.928	27.8
344.722	32.93
345.516	22.68
346.31	3.2
347.104	10.38
347.898	24.73
348.691	13.45
349.485	26.78
350.278	-0.9
351.072	18.58
351.865	-474.34
352.658	42.15
353.452	9.35
354.245	15.5
355.038	6.28
355.83	22.68
356.623	14.48
357.416	25.75
358.209	43.18
359.001	16.53
359.794	17.55
360.586	17.55
361.378	23.7
362.17	28.83
362.963	26.78
363.755	33.95
364.546	18.58
365.338	23.7
366.13	38.05
366.922	20.63
367.713	20.63
368.505	28.83
369.296	40.11
370.088	49.34
370.879	25.76
371.67	32.93
372.461	55.48
373.252	54.45
374.043	43.17
374.834	53.44
375.625	70.85
376.415	75.97
377.206	84.17
377.996	109.8
378.787	127.2
379.577	150.8
380.367	189.76
381.157	229.68
381.947	271.71
382.737	327.02
383.527	367.98
384.317	424.28
385.107	500.15
385.896	555.34
386.686	640.36
387.475	728.36
388.265	852.29
389.054	964.43
389.843	1096.78
390.632	1243.96
391.421	1373.76
392.21	1518.84
392.999	1705
393.788	1880.5
394.576	2071.26
395.365	2250.81
396.154	2500.88
396.942	2705.86
397.73	2894.11
398.519	3139.54
399.307	3323.7
400.095	3512.85
400.883	3719.85
401.671	3941.02
402.459	4199.99
403.246	4386.13
404.034	4679.38
404.822	4927.73
405.609	5147.19
406.396	5366.88
407.184	5547.48
407.971	5661.96
408.758	5803.74
409.545	5923.83
410.332	6034.25
411.119	6174.1
411.906	6332.85
412.693	6542.1
413.479	6789.58
414.266	7085.26
415.052	7436.78
415.839	7896.26
416.625	8281.51
417.411	8763.83
418.197	9248.92
418.983	9677.65
419.769	9924.07
420.555	9869.34
421.341	9788.11
422.127	9685.26
422.912	9625.2
423.698	9568.57
424.483	9531.61
425.269	9558.09
426.054	9725.81
426.839	9876.99
427.624	10237.82
428.409	10445.37
429.194	10900.22
429.979	11323.42
430.764	11704.46
431.549	12132.88
432.333	12519.64
433.118	12810.6
433.902	13087.54
434.687	13339.51
435.471	13444.87
436.255	13770.6
437.039	13977.87
437.823	14215.1
438.607	14355.61
439.391	14289.63
440.175	14242.98
440.958	14388.73
441.742	14529.38
442.526	14688.63
443.309	14831.71
444.092	15053.5
444.876	15251.57
445.659	15435.82
446.442	15641.83
447.225	15955.83
448.008	16574.91
448.791	17831.82
449.573	19554.89
450.356	19780.23
451.139	19248.04
451.921	19628.59
452.704	19490.73
453.486	19222.8
454.268	19549.69
455.05	20103.12
455.833	20799.48
456.615	21651.35
457.396	22444.51
458.178	22815.81
458.96	22869.99
459.742	23043.24
460.523	23458.15
461.305	24278.4
462.086	25114.44
462.868	25589.32
463.649	25436.14
464.43	25263.68
465.211	25592.05
465.992	26859.11
466.773	29028.32
467.554	30959.68
468.335	31181.97
469.115	30364.71
469.896	29550.32
470.676	28737.09
471.457	28827.59
472.237	30823.33
473.018	32963.48
473.798	31248.04
474.578	28941.43
475.358	28138.58
476.138	28069.03
476.918	28130.32
477.697	28454.94
478.477	29042.1
479.257	30103.58
480.036	31808.58
480.816	33328.75
481.595	34045.27
482.374	34092.23
483.153	34100.42
483.932	33796.69
484.711	33205.83
485.49	33016.86
486.269	33104.43
487.048	33503.56
487.827	34031.12
488.605	34743.18
489.384	35504.38
490.162	36912.21
490.941	39315.79
491.719	41476.07
492.497	42013.1
493.275	41347.63
494.053	40571.7
494.831	40139.31
495.609	39766.94
496.387	39770.09
497.164	39771.48
497.942	39989.59
498.72	40120.07
499.497	40246.68
500.274	40584.41
501.052	40843.72
501.829	41251.04
502.606	41672.58
503.383	42044.03
504.16	42193.41
504.937	42311.24
505.714	42365.92
506.49	42684.56
507.267	42912.52
508.043	43247.62
508.82	43541.19
509.596	43941.68
510.373	44250.74
511.149	44751.6
511.925	45350.4
512.701	45869.04
513.477	46266.9
514.253	46645.16
515.029	46999.63
515.804	47354.69
516.58	47782.49
517.356	48265.06
518.131	48785.66
518.906	49270.4
519.682	49531.63
520.457	49937.93
521.232	50449.49
522.007	50675.05
522.782	50979.77
523.557	51341.41
524.332	51529.88
525.107	51717.62
525.881	51987.57
526.656	52167.97
527.43	52264.41
528.205	52429.89
528.979	52423.28
529.753	52338.4
530.527	52182.53
531.302	52054.22
532.076	51984.78
532.849	51969.2
533.623	51670.55
534.397	51436.02
535.171	51109.3
535.944	51009.82
536.718	50804.92
537.491	50569.84
538.265	50413.99
539.038	50408.21
539.811	50299.39
540.584	50408.6
541.357	50322.77
542.13	50206.17
542.903	50091.17
543.676	49991.57
544.449	49945.13
545.221	49845.98
545.994	49868.18
546.766	49794.33
547.539	49845.31
548.311	49803.03
549.083	49790.46
549.855	49886
550.627	49963.04
551.399	50219.95
552.171	50490.06
552.943	50717.1
553.715	50882.74
554.486	51244.61
555.258	51668.27
556.029	51906.77
556.801	52092.13
557.572	52515.37
558.343	52914.86
559.114	53124.47
559.886	53569.55
560.657	54102.65
561.427	54328.53
562.198	54676.92
562.969	54913.77
563.74	55159.43
564.51	55344.05
565.281	55627.48
566.051	55738.22
566.822	55854.71
567.592	55866.95
568.362	55995.89
569.132	55747.32
569.902	55581.38
570.672	55348.26
571.442	55026.71
572.212	54844.43
572.982	54514.07
573.751	54304.38
574.521	54056.92
575.29	53825.42
576.06	53462.99
576.829	53229.36
577.598	52869.11
578.367	52620.39
579.136	52448.41
579.905	52174.67
580.674	52157.06
581.443	52062.99
582.212	51937.35
582.981	51834.52
583.749	51890.21
584.518	51807.89
585.286	51929.26
586.054	51851.88
586.823	51864.14
587.591	51812.42
588.359	51837.38
589.127	51833.77
589.895	51786.8
590.663	51752.36
591.431	51682.09
592.198	51599.2
592.966	51508.32
593.734	51304.77
594.501	51178.78
595.268	51126.35
596.036	50723.36
596.803	50492.95
597.57	50270.79
598.337	50002.57
599.104	49644.35
599.871	49343.42
600.638	49014.83
601.405	48632.57
602.171	48327.98
602.938	48124.15
603.704	47778.56
604.471	47485.11
605.237	47350.46
606.004	46951.96
606.77	46857.48
607.536	46712.14
608.302	46615.95
609.068	46428.52
609.834	46368.6
610.599	46302.61
611.365	46358.95
612.131	46376.59
612.896	46351.29
613.662	46418.8
614.427	46381.66
615.193	46215.04
615.958	46136.6
616.723	45961.37
617.488	45928.48
618.253	45760.97
619.018	45448.16
619.783	45324.05
620.548	45129.65
621.312	45001.13
622.077	44827.17
622.842	44580.15
623.606	44326.84
624.37	44090.11
625.135	43874.96
625.899	43588.26
626.663	43191.7
627.427	42813.8
628.191	42402.6
628.955	42181.26
629.719	41980.77
630.483	41637.84
631.246	41254.46
632.01	40723.4
632.773	40346.54
633.537	39950.37
634.3	39436.69
635.063	38966.18
635.827	38476.75
636.59	37978.07
637.353	37556.08
638.116	37252.31
638.879	36733.34
639.641	36286.01
640.404	35898.71
641.167	35379.91
641.929	34952.1
642.692	34594.02
643.454	34166.22
644.216	33944.23
644.979	33576.76
645.741	33399.51
646.503	33121
647.265	32953.62
648.027	32621.32
648.789	32462.4
649.551	32119.52
650.312	31419.93
651.074	30877.04
651.835	30375.82
652.597	29928.02
653.358	29499.69
654.12	29226.55
654.881	28946.68
655.642	28753.71
656.403	28501.41
657.164	28293.36
657.925	28164.36
658.686	28074.35
659.447	27969.09
660.207	27951.51
660.968	27950.49
661.728	27928.84
662.489	27911.5
663.249	28039.14
664.01	28052.78
664.77	28080.74
665.53	28289.11
666.29	28251.49
667.05	28315.15
667.81	28359.35
668.57	28442.35
669.329	28442.75
670.089	28566.59
670.849	28629.3
671.608	28707.89
672.368	28640.27
673.127	28614.32
673.886	28618.53
674.646	28517.63
675.405	28376.56
676.164	28333.94
676.923	28094.75
677.682	27990.53
678.44	27814.28
679.199	27706.34
679.958	27617.25
680.717	27752.88
681.475	28089.4
682.233	28795.46
682.992	28907.26
683.75	28201
684.508	27474.32
685.266	26727.47
686.024	26297.05
686.782	25831.91
687.54	25536.37
688.298	25178.56
689.056	24757.26
689.814	24220.33
690.571	23735.17
691.329	23266.72
692.086	22676.41
692.843	22265.98
693.601	21774.66
694.358	21309.93
695.115	20861.67
695.872	20481.4
696.629	20135.96
697.386	19783.67
698.143	19479.07
698.9	19267.54
699.656	19064.52
700.413	18856.59
701.169	18574.48
701.926	18530.35
702.682	18335.81
703.438	18108.34
704.195	17976.89
704.951	17793.08
705.707	17671.1
706.463	17653.36
707.219	17575.69
707.974	17433.07
708.73	17462.94
709.486	17410.14
710.241	17382.74
710.997	17255.64
711.752	17181.81
712.508	16914.94
713.263	16496.37
714.018	16126.12
714.773	15595.71
715.528	15146.55
716.283	14609.5
717.038	14188.3
717.793	13707.1
718.548	13184.51
719.303	12643.96
720.057	12083.4
720.812	11610.06
721.566	11201.4
722.321	10813.54
723.075	10489.69
723.829	10184.15
724.583	9954.34
725.337	9779.16
726.091	9559.75
726.845	9455.75
727.599	9336.51
728.353	9202.43
729.106	9007.24
729.86	8901.46
730.614	8849.97
731.367	9084.09
732.12	8993.45
732.874	8811.75
733.627	8480.5
734.38	7985.59
735.133	7593.61
735.886	7254.96
736.639	6952.82
737.392	6792.01
738.145	6728.15
738.897	6594.39
739.65	6505.19
740.403	6388.58
741.155	6181.09
741.907	5878.78
742.66	5435.54
743.412	4896.92
744.164	4242.57
744.916	3486.18
745.668	2595.54
746.42	1747.41
747.172	1026.17
747.924	534.92
748.676	310.66
749.427	201
750.179	140.53
750.93	142.58
751.682	144.66
752.433	107.74
753.184	91.33
753.935	119.03
754.687	93.41
755.438	94.42
756.189	94.43
756.939	83.15
757.69	92.38
758.441	103.65
759.192	79.05
759.942	87.24
760.693	78.02
761.443	83.15
762.194	79.06
762.944	88.28
763.694	67.77
764.444	96.48
765.194	80.07
765.944	79.05
766.694	62.65
767.444	74.94
768.194	69.82
768.943	73.93
769.693	48.3
770.443	58.55
771.192	47.27
771.941	75.99
772.691	43.18
773.44	37.03
774.189	60.6
774.938	39.08
775.687	52.4
776.436	34.98
777.185	40.1
777.934	58.56
778.683	60.6
779.431	50.35
780.18	47.27
780.928	53.43
781.677	51.38
782.425	50.35
783.173	30.88
783.922	56.5
784.67	43.17
785.418	42.15
786.166	49.32
786.914	52.41
787.661	45.23
788.409	40.1
789.157	56.5
789.904	46.25
790.652	48.3
791.399	50.35
792.147	52.4
792.894	51.38
793.641	48.3
794.388	240.14
795.136	53.43
795.883	59.58
796.629	50.35
797.376	26.78
798.123	45.23
798.87	38.06
799.616	21.65
800.363	33.95
801.109	28.82
801.856	30.88
802.602	27.81
803.349	41.12
804.095	32.92
804.841	15.5
805.587	26.78
806.333	20.63
807.079	31.9
807.825	41.13
808.57	13.45
809.316	28.82
810.062	11.4
810.807	29.85
811.553	33.95
812.298	30.88
813.043	20.63
813.788	30.87
814.534	33.95
815.279	43.17
816.024	4.23
816.769	17.55
817.514	19.6
818.258	15.5
819.003	28.82
819.748	189.69
820.492	34.98
821.237	-44.68
821.981	41.13
822.726	17.55
823.47	12.43
824.214	16.53
824.958	2.18
825.702	4.23
826.446	12.43
827.19	37.03
827.934	26.77
828.678	36
829.421	25.75
830.165	8.33
830.909	19.6
831.652	16.53
832.395	6.28
833.139	33.95
833.882	13.45
834.625	18.58
835.368	12.43
836.111	9.35
836.854	2.18
837.597	12.43
838.34	2.18
839.083	25.75
839.825	10.38
840.568	14.48
841.311	13.45
842.053	-1.92
842.795	16.53
843.538	11.4
844.28	10.38
845.022	18.58
845.764	7.3
846.506	22.68
847.248	-12.17
847.99	21.65
848.732	11.4
849.474	2.18
850.215	20.63
850.957	13.46
851.698	9.35
852.44	6.28
853.181	9.35
853.922	17.55
854.664	20.63
855.405	-7.05
856.146	8.33
856.887	15.5
857.628	-8.07
858.369	15.51
859.109	11.4
859.85	-1.92
860.591	22.68
861.331	3.2
862.072	11.41
862.812	0.13
863.553	9.35
864.293	8.33
865.033	7.3
865.773	23.7
866.513	24.73
867.253	20.63
867.993	16.53
868.733	0.13
869.473	-10.12
870.213	-9.1
870.952	-1.92
871.692	1.15
872.431	7.3
873.171	18.58
873.91	15.51
874.649	3.2
875.388	4.23
876.128	-6.02
876.867	-1.92
877.606	-6.02
878.345	10.38
879.083	9.35
879.822	-6.02
880.561	-0.9
881.299	-13.2
882.038	12.43
882.777	21.65
883.515	-8.07
884.253	271.56
884.992	0.13
885.73	4.23
886.468	8.33
887.206	14.48
887.944	0.13
888.682	-14.22
889.42	-6.02
890.157	2.18
890.895	13.45
891.633	-15.23
892.37	-14.22
893.108	5.25
893.845	6.28
894.583	2.18
895.32	13.46
896.057	-7.05
896.794	-11.15
897.531	-11.15
898.268	-8.07
899.005	-10.12
899.742	-1.92
900.479	-15.25
901.215	-14.22
901.952	3.2
902.689	-18.33
903.425	7.3
904.162	8.33
904.898	1.15
905.634	10.38
906.37	1.15
907.106	8.33
907.843	1.15
908.579	-3.97
909.314	3.2
910.05	0.13
910.786	-9.1
911.522	-16.28
912.257	-14.22
912.993	-3.97
913.728	8.33
914.464	-6.02
915.199	-7.05
915.935	1.15
916.67	-8.07
917.405	-10.12
918.14	-22.42
918.875	4.23
919.61	11.4
920.345	-5
921.08	-26.52
921.814	-3.97
922.549	-1.92
923.284	-19.35
924.018	-16.27
924.752	-11.15
925.487	-8.07
926.221	3.2
926.955	-3.97
927.69	-13.2
928.424	-3.97
929.158	-7.05
929.892	-14.22
930.625	4.23
931.359	0.13
932.093	-0.9
932.827	0.13
933.56	-15.25
934.294	-12.17
935.027	5.25
935.761	2.18
936.494	-7.05
937.227	-12.17
937.96	-7.05
938.693	-14.22
939.426	-8.07
940.159	-26.52
940.892	-9.1
941.625	-20.37
942.358	-26.52
943.091	-14.22
943.823	-14.22
944.556	-10.12
945.288	20.63
946.021	-7.05
946.753	-10.12
947.485	-2.95
948.217	8.33
948.95	-17.3
949.682	-3.97
950.414	-6.02
951.146	-2.95
951.877	-9.1
952.609	28.83
953.341	-2.95
954.073	-20.37
954.804	-10.12
955.536	-2.95
956.267	-7.05
956.998	13.46
957.73	-24.48
958.461	-3.97
959.192	5.25
959.923	-2.95
960.654	10.38
961.385	3.2
962.116	0.13
962.847	-6.02
963.578	3.2
964.308	-6.02
965.039	-7.05
965.769	-0.9
966.5	-6.02
967.23	-13.2
967.961	2.18
968.691	-6.02
969.421	1.15
970.151	-19.35
970.881	-25.5
971.611	-17.3
972.341	-12.17
973.071	-6.02
973.801	8.33
974.53	-0.9
975.26	-10.12
975.99	-7.05
976.719	-17.3
977.448	4.23
978.178	-10.12
978.907	3.2
979.636	-5
980.365	-8.07
981.095	-6.02
981.824	-18.32
982.553	-12.17
983.281	-17.3
984.01	1.15
984.739	10.39
985.468	-5
986.196	-1.92
986.925	2.18
987.653	10.38
988.382	15.5
989.11	4.23
989.838	16.53
990.566	14.48
991.295	-2.95
992.023	12.43
992.751	1.15
993.478	4.23
994.206	-0.9
994.934	-1.92
995.662	-2.95
996.389	0.13
997.117	-13.21
997.845	11.41
