Data from White_Subt2_007.txt Node
Date: Fri Aug 23 09:19:37 EDT 2019
User: wcc
Spectrometer: QEPB0759
Trigger mode: 0
Integration Time (sec): 1.000000E0
Scans to average: 1
Electric dark correction enabled: true
Nonlinearity correction enabled: true
Boxcar width: 0
XAxis mode: Wavelengths
Number of Pixels in Spectrum: 1044
>>>>>Begin Spectral Data<<<<<
197.938	19.99
198.749	10.76
199.559	29.21
200.369	19.99
201.179	15.89
201.988	10.76
202.798	25.11
203.608	1.54
204.417	-5.64
205.227	29.22
206.036	12.81
206.846	18.96
207.655	5.64
208.464	11.79
209.273	23.06
210.082	13.84
210.891	12.81
211.7	11.79
212.508	16.91
213.317	17.94
214.125	17.94
214.934	26.14
215.742	27.16
216.55	24.09
217.359	21.02
218.167	29.22
218.975	7.69
219.782	28.19
220.59	9.74
221.398	8.71
222.206	13.84
223.013	23.06
223.82	21.02
224.628	-5.64
225.435	31.26
226.242	30.24
227.049	16.91
227.856	22.04
228.663	7.69
229.47	18.96
230.277	19.99
231.083	19.99
231.89	9.74
232.696	23.06
233.502	25.11
234.309	17.94
235.115	12.81
235.921	15.89
236.727	21.02
237.533	0.51
238.339	0.51
239.144	19.99
239.95	16.91
240.756	22.04
241.561	12.81
242.366	0.51
243.172	27.16
243.977	26.14
244.782	7.69
245.587	32.29
246.392	47.66
247.197	25.12
248.001	17.94
248.806	15.89
249.611	12.81
250.415	26.14
251.219	15.89
252.024	19.99
252.828	33.32
253.632	39.47
254.436	47.67
255.24	16.91
256.044	43.56
256.848	27.16
257.651	11.79
258.455	2.56
259.258	17.94
260.062	164.93
260.865	2.56
261.668	24.09
262.471	15.89
263.274	11.79
264.077	24.09
264.88	4.61
265.683	29.22
266.486	40.49
267.288	16.91
268.091	35.37
268.893	-7.69
269.696	21.01
270.498	22.04
271.3	3.59
272.102	17.94
272.904	17.94
273.706	38.44
274.508	25.11
275.309	15.89
276.111	26.14
276.913	27.17
277.714	17.94
278.515	25.11
279.317	24.09
280.118	45.62
280.919	8.71
281.72	24.09
282.521	21.01
283.322	28.19
284.122	29.21
284.923	35.36
285.724	27.17
286.524	13.84
287.325	7.69
288.125	3.59
288.925	28.19
289.725	-2.56
290.525	17.94
291.325	26.14
292.125	38.44
292.925	6.66
293.724	26.14
294.524	12.81
295.324	22.04
296.123	13.84
296.922	29.21
297.722	30.23
298.521	23.06
299.32	24.09
300.119	19.99
300.918	17.94
301.716	30.23
302.515	16.91
303.314	16.91
304.112	16.91
304.911	23.06
305.709	28.19
306.507	14.86
307.306	14.86
308.104	25.11
308.902	15.89
309.7	21.01
310.498	21.01
311.295	21.02
312.093	23.06
312.891	9.74
313.688	17.94
314.485	25.11
315.283	30.23
316.08	33.31
316.877	17.94
317.674	23.06
318.471	4.61
319.268	22.04
320.065	25.11
320.862	9.74
321.658	38.44
322.455	41.51
323.251	11.79
324.047	26.14
324.844	24.09
325.64	28.19
326.436	22.04
327.232	6.66
328.028	7.69
328.824	34.34
329.62	4.61
330.415	14.86
331.211	35.36
332.006	23.06
332.802	13.84
333.597	17.94
334.392	29.21
335.187	29.21
335.982	41.52
336.777	36.39
337.572	10.76
338.367	9.74
339.162	12.81
339.956	23.06
340.751	32.29
341.545	22.04
342.34	8.71
343.134	30.24
343.928	12.81
344.722	27.16
345.516	23.06
346.31	13.84
347.104	21.01
347.898	34.34
348.691	6.66
349.485	31.27
350.278	9.74
351.072	17.94
351.865	-473.96
352.658	37.41
353.452	7.69
354.245	33.31
355.038	30.24
355.83	29.21
356.623	24.09
357.416	21.01
358.209	30.24
359.001	2.56
359.794	11.79
360.586	23.06
361.378	21.01
362.17	28.19
362.963	18.96
363.755	33.31
364.546	15.89
365.338	28.19
366.13	37.41
366.922	27.16
367.713	26.14
368.505	35.36
369.296	42.54
370.088	58.95
370.879	28.19
371.67	34.34
372.461	53.82
373.252	51.76
374.043	43.56
374.834	54.85
375.625	70.21
376.415	82.5
377.206	84.56
377.996	105.06
378.787	136.81
379.577	147.09
380.367	180.92
381.157	213.68
381.947	278.24
382.737	300.77
383.527	347.87
384.317	420.56
385.107	500.54
385.896	550.6
386.686	646.88
387.475	740
388.265	849.6
389.054	938.22
389.843	1087.95
390.632	1217.76
391.421	1349.61
392.21	1512.08
392.999	1674.73
393.788	1877.82
394.576	2047.15
395.365	2253.24
396.154	2504.32
396.942	2677.71
397.73	2892.45
398.519	3120.58
399.307	3332.23
400.095	3478.65
400.883	3716.16
401.671	3927.17
402.459	4143.5
403.246	4382.45
404.034	4648.3
404.822	4904.79
405.609	5146.55
406.396	5327.75
407.184	5506.33
407.971	5633.99
408.758	5798.04
409.545	5933.32
410.332	5969.88
411.119	6164.37
411.906	6321.09
412.693	6521.25
413.479	6787.93
414.266	7053.33
415.052	7450.28
415.839	7864.37
416.625	8261.73
417.411	8773.27
418.197	9216.1
418.983	9641.83
419.769	9874.19
420.555	9821.46
421.341	9758.32
422.127	9661.5
422.912	9568.25
423.698	9523.69
424.483	9494.77
425.269	9568.52
426.054	9684.95
426.839	9873.34
427.624	10126.66
428.409	10448.76
429.194	10873.49
429.979	11218.44
430.764	11688.79
431.549	12070.11
432.333	12439.86
433.118	12740.85
433.902	13063.89
434.687	13233.78
435.471	13442.24
436.255	13663.91
437.039	13891.21
437.823	14154.47
438.607	14208.98
439.391	14172
440.175	14228.36
440.958	14319.11
441.742	14456.77
442.526	14569.04
443.309	14768.11
444.092	14997.92
444.876	15176.02
445.659	15398.24
446.442	15551.33
447.225	15870.35
448.008	16407.66
448.791	17741.5
449.573	19393.05
450.356	19698.03
451.139	19097.11
451.921	19492.62
452.704	19436.36
453.486	19124.62
454.268	19538.12
455.05	20065.7
455.833	20711.37
456.615	21549.4
457.396	22332.69
458.178	22762.58
458.96	22859.45
459.742	22927.49
460.523	23398.99
461.305	24157.79
462.086	25068.23
462.868	25467.8
463.649	25431.56
464.43	25254.14
465.211	25452.69
465.992	26753.49
466.773	29077.21
467.554	30873.88
468.335	31028.8
469.115	30327.44
469.896	29446.72
470.676	28692.9
471.457	28757.66
472.237	30772.2
473.018	32789.36
473.798	31122.61
474.578	28840.8
475.358	28153.8
476.138	27966.41
476.918	28005.92
477.697	28387.98
478.477	28918.7
479.257	30052.45
480.036	31654.39
480.816	33243.84
481.595	33886.89
482.374	34001.31
483.153	33963.85
483.932	33634.37
484.711	33095.14
485.49	32897.26
486.269	33013.58
487.048	33380.95
487.827	33953.1
488.605	34640.3
489.384	35388.51
490.162	36706.61
490.941	39163.45
491.719	41406.39
492.497	41849.25
493.275	41231.94
494.053	40581.07
494.831	39919.91
495.609	39613.53
496.387	39620.67
497.164	39660.01
497.942	39771.23
498.72	39988.57
499.497	40190.1
500.274	40484.84
501.052	40775.09
501.829	41115.35
502.606	41535.83
503.383	41870.16
504.16	42082.6
504.937	42141.32
505.714	42326.22
506.49	42521.57
507.267	42800.63
508.043	43095.57
508.82	43443.25
509.596	43798.56
510.373	44179.84
511.149	44678.66
511.925	45145.79
512.701	45724.65
513.477	46062.12
514.253	46520.8
515.029	46748.46
515.804	47301.72
516.58	47650.97
517.356	48077.1
518.131	48563.38
518.906	48958.38
519.682	49473.54
520.457	49813.27
521.232	50234
522.007	50559.4
522.782	50940.79
523.557	51198.42
524.332	51342.43
525.107	51652.33
525.881	51923.27
526.656	51966.23
527.43	52077.78
528.205	52403.98
528.979	52369.05
529.753	52102.22
530.527	52039.36
531.302	51888.87
532.076	51745.68
532.849	51681.63
533.623	51554.77
534.397	51224.36
535.171	51150.05
535.944	50915.32
536.718	50583.31
537.491	50408.78
538.265	50228.77
539.038	50162.46
539.811	50087.95
540.584	50151.76
541.357	50255.57
542.13	50065.34
542.903	49895.89
543.676	49729.77
544.449	49836.6
545.221	49812.07
545.994	49743.53
546.766	49827.98
547.539	49651.1
548.311	49609.83
549.083	49675.9
549.855	49762.36
550.627	49864.59
551.399	50072.07
552.171	50321.95
552.943	50513.66
553.715	50829.63
554.486	51044.09
555.258	51436.35
556.029	51777.82
556.801	52016.7
557.572	52456.08
558.343	52783.68
559.114	53115.74
559.886	53476.67
560.657	53898.01
561.427	54203.99
562.198	54545.1
562.969	54757.38
563.74	55046.7
564.51	55316.89
565.281	55425.62
566.051	55557.81
566.822	55609.82
567.592	55670.05
568.362	55686.43
569.132	55676.16
569.902	55510.24
570.672	55230.37
571.442	54871.26
572.212	54616.87
572.982	54434.15
573.751	54180.83
574.521	53979.15
575.29	53624.93
576.06	53372.15
576.829	53023.14
577.598	52812.81
578.367	52515.57
579.136	52291.04
579.905	52126.52
580.674	52012.89
581.443	51867.3
582.212	51677.05
582.981	51765.18
583.749	51746.1
584.518	51645.62
585.286	51657.82
586.054	51748.18
586.823	51692.76
587.591	51771.38
588.359	51667
589.127	51706.84
589.895	51593.2
590.663	51598.16
591.431	51556.19
592.198	51464.23
592.966	51370.34
593.734	51202.15
594.501	51082.25
595.268	50909.7
596.036	50623.84
596.803	50493.33
597.57	50123.91
598.337	49740.78
599.104	49515.69
599.871	49164.39
600.638	48847.94
601.405	48567.46
602.171	48221.6
602.938	47918.07
603.704	47676.25
604.471	47472.4
605.237	47154.56
606.004	46881.9
606.77	46732.09
607.536	46627
608.302	46438.27
609.068	46416.82
609.834	46271.42
610.599	46230.57
611.365	46325.13
612.131	46390.05
612.896	46319.48
613.662	46241.14
614.427	46275.42
615.193	46086.69
615.958	45937.87
616.723	45893.38
617.488	45768
618.253	45716.11
619.018	45481.7
619.783	45289.26
620.548	45104.91
621.312	44873.92
622.077	44686.93
622.842	44445.96
623.606	44253.92
624.37	43991.12
625.135	43738.86
625.899	43396.02
626.663	43235.2
627.427	42658.81
628.191	42336.85
628.955	42000.33
629.719	41747.84
630.483	41480.07
631.246	40981.75
632.01	40648.78
632.773	40254.97
633.537	39779.96
634.3	39307.3
635.063	38817.93
635.827	38470.14
636.59	37876.82
637.353	37469.81
638.116	37084.44
638.879	36561.62
639.641	36139.22
640.404	35711.22
641.167	35324.64
641.929	34874.01
642.692	34521.93
643.454	34142.77
644.216	33814.62
644.979	33581.1
645.741	33273.93
646.503	33042.04
647.265	32786.44
648.027	32512.65
648.789	32325.99
649.551	32009.89
650.312	31443.08
651.074	30737.75
651.835	30264.29
652.597	29849.17
653.358	29432.72
654.12	29158.6
654.881	28907.44
655.642	28711.51
656.403	28411.68
657.164	28190.75
657.925	28106.31
658.686	27953.91
659.447	27882.32
660.207	27876.63
660.968	27867.68
661.728	27878.71
662.489	27874.24
663.249	27928.6
664.01	27984.82
664.77	28080.13
665.53	28147.88
666.29	28158.78
667.05	28204.62
667.81	28339.92
668.57	28331.82
669.329	28386.68
670.089	28455.07
670.849	28585.11
671.608	28609.24
672.368	28575.29
673.127	28550.33
673.886	28537.71
674.646	28446.71
675.405	28378.91
676.164	28232.32
676.923	28099.08
677.682	27937.43
678.44	27731.47
679.199	27636.4
679.958	27603.75
680.717	27696.81
681.475	28117.5
682.233	28706.72
682.992	28775.94
683.75	28128.09
684.508	27400.41
685.266	26695.15
686.024	26180.52
686.782	25753.01
687.54	25544.67
688.298	25137.31
689.056	24659.49
689.814	24244.5
690.571	23669.08
691.329	23117.25
692.086	22608.29
692.843	22166.06
693.601	21722.38
694.358	21209.94
695.115	20774.55
695.872	20348.51
696.629	20030.89
697.386	19748.22
698.143	19396.84
698.9	19191.27
699.656	19023.08
700.413	18788.26
701.169	18626.64
701.926	18405.21
702.682	18272.42
703.438	18112.7
704.195	17925.44
704.951	17724.68
705.707	17579.76
706.463	17568.99
707.219	17448.46
707.974	17419.49
708.73	17350.64
709.486	17378.61
710.241	17346.22
710.997	17293.91
711.752	17071.49
712.508	16802.59
713.263	16396.96
714.018	16102.54
714.773	15585.1
715.528	15122.95
716.283	14605.88
717.038	14111.66
717.793	13725.49
718.548	13175.88
719.303	12602.26
720.057	12055.7
720.812	11598.4
721.566	11192.74
722.321	10805.89
723.075	10491.07
723.829	10166.44
724.583	9926.57
725.337	9757.42
726.091	9596.33
726.845	9414.89
727.599	9312.74
728.353	9204.82
729.106	9010.64
729.86	8823.32
730.614	8873.51
731.367	8766.95
732.12	8962.63
732.874	8799.04
733.627	8418.42
734.38	7977.9
735.133	7589.95
735.886	7246.25
736.639	6977.43
737.392	6796.43
738.145	6678.01
738.897	6635.19
739.65	6517.69
740.403	6359.63
741.155	6178.43
741.907	5863.98
742.66	5419.71
743.412	4877.02
744.164	4227.72
744.916	3457.05
745.668	2591.84
746.42	1727.37
747.172	1026.56
747.924	543.5
748.676	286.46
749.427	200.36
750.179	152.19
750.93	145.02
751.682	138.89
752.433	113.25
753.184	93.77
753.935	108.14
754.687	110.19
755.438	96.85
756.189	90.71
756.939	87.64
757.69	83.54
758.441	96.86
759.192	87.64
759.942	104.03
760.693	80.46
761.443	72.26
762.194	86.62
762.944	89.69
763.694	85.58
764.444	88.66
765.194	81.48
765.944	81.48
766.694	59.96
767.444	76.35
768.194	69.18
768.943	56.89
769.693	40.48
770.443	57.91
771.192	41.51
771.941	67.15
772.691	49.71
773.44	49.71
774.189	52.78
774.938	42.54
775.687	45.61
776.436	37.41
777.185	41.51
777.934	51.77
778.683	59.96
779.431	53.81
780.18	43.56
780.928	50.74
781.677	42.54
782.425	38.44
783.173	41.51
783.922	39.46
784.67	45.6
785.418	37.41
786.166	50.73
786.914	54.84
787.661	50.74
788.409	39.46
789.157	53.81
789.904	42.54
790.652	45.61
791.399	41.51
792.147	45.61
792.894	57.91
793.641	49.71
794.388	263.91
795.136	49.71
795.883	62.02
796.629	43.56
797.376	21.02
798.123	46.64
798.87	44.59
799.616	24.09
800.363	35.36
801.109	26.13
801.856	31.26
802.602	36.39
803.349	48.68
804.095	35.36
804.841	25.11
805.587	38.44
806.333	35.36
807.079	37.41
807.825	50.74
808.57	21.01
809.316	37.41
810.062	8.71
810.807	23.06
811.553	40.48
812.298	19.99
813.043	40.49
813.788	38.43
814.534	38.44
815.279	24.08
816.024	24.09
816.769	30.24
817.514	33.31
818.258	27.16
819.003	26.13
819.748	52.66
820.492	35.36
821.237	-32.08
821.981	43.56
822.726	12.81
823.47	15.89
824.214	27.16
824.958	10.76
825.702	-4.61
826.446	15.89
827.19	28.19
827.934	8.71
828.678	37.41
829.421	29.21
830.165	12.81
830.909	24.09
831.652	13.84
832.395	11.79
833.139	16.91
833.882	5.64
834.625	17.94
835.368	13.84
836.111	24.09
836.854	-5.64
837.597	23.06
838.34	13.84
839.083	29.21
839.825	13.84
840.568	30.24
841.311	17.94
842.053	21.01
842.795	27.17
843.538	15.89
844.28	11.79
845.022	19.99
845.764	6.66
846.506	15.89
847.248	-3.59
847.99	-0.51
848.732	27.16
849.474	7.69
850.215	14.86
850.957	10.76
851.698	1.54
852.44	22.04
853.181	14.86
853.922	17.94
854.664	27.16
855.405	10.76
856.146	11.79
856.887	25.11
857.628	-2.56
858.369	14.87
859.109	9.74
859.85	9.74
860.591	23.06
861.331	2.56
862.072	17.94
862.812	1.54
863.553	8.71
864.293	5.64
865.033	7.69
865.773	25.11
866.513	13.84
867.253	22.04
867.993	15.89
868.733	1.54
869.473	9.74
870.213	-11.79
870.952	9.74
871.692	-4.61
872.431	11.79
873.171	7.69
873.91	18.96
874.649	8.71
875.388	8.71
876.128	1.54
876.867	-2.56
877.606	-12.81
878.345	11.79
879.083	12.81
879.822	-2.56
880.561	-6.66
881.299	2.56
882.038	1.54
882.777	25.11
883.515	0.51
884.253	183.84
884.992	-1.54
885.73	12.81
886.468	15.89
887.206	5.64
887.944	0.51
888.682	9.74
889.42	-14.86
890.157	10.76
890.895	12.81
891.633	1.54
892.37	-5.64
893.108	-1.54
893.845	-0.51
894.583	-4.61
895.32	8.71
896.057	1.54
896.794	-14.86
897.531	-6.66
898.268	-12.81
899.005	3.59
899.742	-1.54
900.479	-12.81
901.215	3.59
901.952	-0.51
902.689	-0.51
903.425	0.51
904.162	3.59
904.898	-3.59
905.634	-5.64
906.37	-11.79
907.106	15.89
907.843	3.59
908.579	-2.56
909.314	-9.74
910.05	-10.76
910.786	-9.74
911.522	-9.74
912.257	-18.96
912.993	8.71
913.728	9.74
914.464	-6.66
915.199	4.61
915.935	-22.04
916.67	-5.64
917.405	-3.59
918.14	0.51
918.875	4.61
919.61	0.51
920.345	2.56
921.08	-4.61
921.814	0.51
922.549	-1.54
923.284	-26.14
924.018	-15.89
924.752	-29.21
925.487	-3.59
926.221	-4.61
926.955	-1.54
927.69	3.59
928.424	-8.71
929.158	-4.61
929.892	-11.79
930.625	6.66
931.359	5.64
932.093	9.74
932.827	-7.69
933.56	3.59
934.294	8.71
935.027	-5.64
935.761	-3.59
936.494	-4.61
937.227	-18.96
937.96	-9.74
938.693	-9.74
939.426	4.61
940.159	-28.19
940.892	4.61
941.625	0.51
942.358	-10.76
943.091	-7.69
943.823	-28.19
944.556	-8.71
945.288	0.51
946.021	-1.54
946.753	-10.76
947.485	0.51
948.217	12.81
948.95	-21.01
949.682	2.56
950.414	-17.94
951.146	-9.74
951.877	-4.61
952.609	19.99
953.341	-14.86
954.073	-13.84
954.804	2.56
955.536	-1.54
956.267	-15.89
956.998	8.71
957.73	-14.86
958.461	-1.54
959.192	10.76
959.923	-19.99
960.654	2.56
961.385	13.84
962.116	-13.84
962.847	-2.56
963.578	3.59
964.308	-19.99
965.039	-11.79
965.769	-7.69
966.5	-1.54
967.23	-4.61
967.961	-8.71
968.691	-17.94
969.421	-9.74
970.151	-9.74
970.881	-23.07
971.611	-18.96
972.341	-13.84
973.071	-19.99
973.801	-8.71
974.53	2.56
975.26	-11.79
975.99	-4.61
976.719	-15.89
977.448	-1.54
978.178	-7.69
978.907	-4.61
979.636	-0.51
980.365	5.64
981.095	10.76
981.824	-8.71
982.553	-7.69
983.281	-14.86
984.01	-2.57
984.739	0.51
985.468	-11.8
986.196	-2.57
986.925	4.61
987.653	6.66
988.382	14.86
989.11	3.59
989.838	17.94
990.566	21.01
991.295	-15.89
992.023	-1.54
992.751	-1.54
993.478	2.56
994.206	-9.74
994.934	-8.71
995.662	-2.57
996.389	4.62
997.117	-6.67
997.845	21.03
