Data from White_Bg_Subt2_006.txt Node
Date: Tue Aug 27 12:42:53 EDT 2019
User: wcc
Spectrometer: QEPB0759
Trigger mode: 0
Integration Time (sec): 1.000000E0
Scans to average: 1
Electric dark correction enabled: true
Nonlinearity correction enabled: false
Boxcar width: 0
XAxis mode: Wavelengths
Number of Pixels in Spectrum: 1044
>>>>>Begin Spectral Data<<<<<
197.938	20.12
198.749	38.12
199.559	23.12
200.369	19.12
201.179	21.12
201.988	23.12
202.798	30.12
203.608	21.12
204.417	21.12
205.227	29.12
206.036	29.12
206.846	29.12
207.655	36.12
208.464	29.12
209.273	23.12
210.082	28.12
210.891	35.12
211.7	29.12
212.508	32.12
213.317	15.12
214.125	25.12
214.934	29.12
215.742	17.12
216.55	41.12
217.359	24.12
218.167	32.12
218.975	37.12
219.782	33.12
220.59	12.12
221.398	21.12
222.206	23.12
223.013	44.12
223.82	36.12
224.628	31.12
225.435	38.12
226.242	17.12
227.049	27.12
227.856	27.12
228.663	34.12
229.47	15.12
230.277	29.12
231.083	29.12
231.89	23.12
232.696	31.12
233.502	22.12
234.309	32.12
235.115	24.12
235.921	19.12
236.727	28.12
237.533	27.12
238.339	37.12
239.144	37.12
239.95	26.12
240.756	31.12
241.561	26.12
242.366	42.12
243.172	34.12
243.977	27.12
244.782	24.12
245.587	38.12
246.392	20.12
247.197	19.12
248.001	40.12
248.806	37.12
249.611	26.12
250.415	36.12
251.219	23.12
252.024	23.12
252.828	34.12
253.632	25.12
254.436	30.12
255.24	40.12
256.044	26.12
256.848	25.12
257.651	23.12
258.455	23.12
259.258	26.12
260.062	1656.12
260.865	23.12
261.668	34.12
262.471	22.12
263.274	21.12
264.077	15.12
264.88	15.12
265.683	29.12
266.486	12.12
267.288	28.12
268.091	41.12
268.893	27.12
269.696	28.12
270.498	26.12
271.3	33.12
272.102	22.12
272.904	21.12
273.706	28.12
274.508	16.12
275.309	56.12
276.111	38.12
276.913	21.12
277.714	30.12
278.515	14.12
279.317	30.12
280.118	36.12
280.919	33.12
281.72	28.12
282.521	29.12
283.322	29.12
284.122	23.12
284.923	18.12
285.724	25.12
286.524	31.12
287.325	31.12
288.125	16.12
288.925	29.12
289.725	20.12
290.525	24.12
291.325	10.12
292.125	14.12
292.925	25.12
293.724	42.12
294.524	25.12
295.324	35.12
296.123	15.12
296.922	31.12
297.722	23.12
298.521	45.12
299.32	29.12
300.119	22.12
300.918	33.12
301.716	26.12
302.515	30.12
303.314	35.12
304.112	28.12
304.911	32.12
305.709	28.12
306.507	20.12
307.306	23.12
308.104	38.12
308.902	33.12
309.7	39.12
310.498	29.12
311.295	31.12
312.093	43.12
312.891	30.12
313.688	35.12
314.485	23.12
315.283	26.12
316.08	24.12
316.877	35.12
317.674	19.12
318.471	40.12
319.268	30.12
320.065	26.12
320.862	27.12
321.658	25.12
322.455	31.12
323.251	31.12
324.047	28.12
324.844	31.12
325.64	16.12
326.436	33.12
327.232	34.12
328.028	28.12
328.824	28.12
329.62	29.12
330.415	27.12
331.211	26.12
332.006	26.12
332.802	33.12
333.597	31.12
334.392	31.12
335.187	42.12
335.982	40.12
336.777	27.12
337.572	34.12
338.367	39.12
339.162	36.12
339.956	18.12
340.751	21.12
341.545	35.12
342.34	16.12
343.134	27.12
343.928	34.12
344.722	26.12
345.516	30.12
346.31	22.12
347.104	33.12
347.898	33.12
348.691	22.12
349.485	22.12
350.278	25.12
351.072	30.12
351.865	235.12
352.658	34.12
353.452	16.12
354.245	11.12
355.038	22.12
355.83	29.12
356.623	37.12
357.416	31.12
358.209	34.12
359.001	33.12
359.794	34.12
360.586	32.12
361.378	26.12
362.17	7.12
362.963	20.12
363.755	22.12
364.546	28.12
365.338	28.12
366.13	35.12
366.922	23.12
367.713	23.12
368.505	29.12
369.296	19.12
370.088	35.12
370.879	24.12
371.67	24.12
372.461	22.12
373.252	17.12
374.043	28.12
374.834	29.12
375.625	34.12
376.415	17.12
377.206	28.12
377.996	32.12
378.787	30.12
379.577	22.12
380.367	18.12
381.157	25.12
381.947	28.12
382.737	11.12
383.527	26.12
384.317	21.12
385.107	17.12
385.896	17.12
386.686	22.12
387.475	24.12
388.265	24.12
389.054	33.12
389.843	16.12
390.632	27.12
391.421	24.12
392.21	27.12
392.999	22.12
393.788	32.12
394.576	27.12
395.365	28.12
396.154	26.12
396.942	23.12
397.73	26.12
398.519	34.12
399.307	18.12
400.095	25.12
400.883	16.12
401.671	31.12
402.459	23.12
403.246	18.12
404.034	34.12
404.822	33.12
405.609	25.12
406.396	31.12
407.184	32.12
407.971	35.12
408.758	30.12
409.545	29.12
410.332	35.12
411.119	36.12
411.906	17.12
412.693	29.12
413.479	33.12
414.266	30.12
415.052	22.12
415.839	26.12
416.625	25.12
417.411	26.12
418.197	27.12
418.983	37.12
419.769	27.12
420.555	27.12
421.341	40.12
422.127	24.12
422.912	40.12
423.698	15.12
424.483	11.12
425.269	38.12
426.054	19.12
426.839	29.12
427.624	20.12
428.409	39.12
429.194	26.12
429.979	39.12
430.764	32.12
431.549	39.12
432.333	36.12
433.118	16.12
433.902	25.12
434.687	20.12
435.471	20.12
436.255	17.12
437.039	28.12
437.823	24.12
438.607	31.12
439.391	32.12
440.175	16.12
440.958	30.12
441.742	25.12
442.526	20.12
443.309	12.12
444.092	30.12
444.876	45.12
445.659	25.12
446.442	29.12
447.225	10.12
448.008	32.12
448.791	46.12
449.573	47.12
450.356	41.12
451.139	30.12
451.921	17.12
452.704	28.12
453.486	41.12
454.268	39.12
455.05	36.12
455.833	33.12
456.615	36.12
457.396	39.12
458.178	26.12
458.96	30.12
459.742	37.12
460.523	30.12
461.305	33.12
462.086	44.12
462.868	46.12
463.649	38.12
464.43	26.12
465.211	32.12
465.992	43.12
466.773	43.12
467.554	35.12
468.335	33.12
469.115	32.12
469.896	39.12
470.676	31.12
471.457	26.12
472.237	40.12
473.018	8.12
473.798	54.12
474.578	44.12
475.358	23.12
476.138	23.12
476.918	33.12
477.697	14.12
478.477	38.12
479.257	34.12
480.036	32.12
480.816	24.12
481.595	37.12
482.374	17.12
483.153	33.12
483.932	36.12
484.711	19.12
485.49	38.12
486.269	28.12
487.048	23.12
487.827	27.12
488.605	18.12
489.384	26.12
490.162	13.12
490.941	11.12
491.719	32.12
492.497	34.12
493.275	35.12
494.053	35.12
494.831	29.12
495.609	33.12
496.387	28.12
497.164	24.12
497.942	40.12
498.72	23.12
499.497	28.12
500.274	38.12
501.052	37.12
501.829	35.12
502.606	40.12
503.383	28.12
504.16	48.12
504.937	47.12
505.714	40.12
506.49	42.12
507.267	31.12
508.043	36.12
508.82	51.12
509.596	35.12
510.373	28.12
511.149	47.12
511.925	29.12
512.701	14.12
513.477	46.12
514.253	39.12
515.029	43.12
515.804	38.12
516.58	44.12
517.356	45.12
518.131	42.12
518.906	41.12
519.682	25.12
520.457	35.12
521.232	30.12
522.007	36.12
522.782	48.12
523.557	38.12
524.332	34.12
525.107	36.12
525.881	52.12
526.656	28.12
527.43	49.12
528.205	39.12
528.979	43.12
529.753	57.12
530.527	48.12
531.302	36.12
532.076	39.12
532.849	31.12
533.623	47.12
534.397	40.12
535.171	48.12
535.944	44.12
536.718	38.12
537.491	56.12
538.265	34.12
539.038	44.12
539.811	43.12
540.584	30.12
541.357	34.12
542.13	50.12
542.903	45.12
543.676	32.12
544.449	32.12
545.221	42.12
545.994	37.12
546.766	20.12
547.539	36.12
548.311	49.12
549.083	43.12
549.855	36.12
550.627	47.12
551.399	49.12
552.171	36.12
552.943	52.12
553.715	42.12
554.486	45.12
555.258	29.12
556.029	44.12
556.801	40.12
557.572	51.12
558.343	48.12
559.114	37.12
559.886	52.12
560.657	35.12
561.427	53.12
562.198	45.12
562.969	38.12
563.74	41.12
564.51	44.12
565.281	42.12
566.051	37.12
566.822	45.12
567.592	40.12
568.362	45.12
569.132	55.12
569.902	57.12
570.672	47.12
571.442	50.12
572.212	40.12
572.982	41.12
573.751	48.12
574.521	60.12
575.29	38.12
576.06	50.12
576.829	45.12
577.598	41.12
578.367	36.12
579.136	41.12
579.905	33.12
580.674	38.12
581.443	51.12
582.212	34.12
582.981	46.12
583.749	33.12
584.518	61.12
585.286	39.12
586.054	49.12
586.823	51.12
587.591	31.12
588.359	54.12
589.127	47.12
589.895	50.12
590.663	45.12
591.431	40.12
592.198	55.12
592.966	42.12
593.734	48.12
594.501	44.12
595.268	54.12
596.036	44.12
596.803	61.12
597.57	45.12
598.337	37.12
599.104	55.12
599.871	41.12
600.638	41.12
601.405	47.12
602.171	55.12
602.938	45.12
603.704	48.12
604.471	39.12
605.237	43.12
606.004	29.12
606.77	42.12
607.536	29.12
608.302	34.12
609.068	50.12
609.834	31.12
610.599	34.12
611.365	38.12
612.131	43.12
612.896	38.12
613.662	38.12
614.427	43.12
615.193	42.12
615.958	25.12
616.723	41.12
617.488	40.12
618.253	26.12
619.018	41.12
619.783	43.12
620.548	40.12
621.312	42.12
622.077	45.12
622.842	44.12
623.606	49.12
624.37	19.12
625.135	29.12
625.899	54.12
626.663	40.12
627.427	54.12
628.191	52.12
628.955	55.12
629.719	39.12
630.483	45.12
631.246	37.12
632.01	29.12
632.773	52.12
633.537	41.12
634.3	38.12
635.063	35.12
635.827	44.12
636.59	28.12
637.353	36.12
638.116	51.12
638.879	40.12
639.641	39.12
640.404	45.12
641.167	44.12
641.929	46.12
642.692	54.12
643.454	45.12
644.216	36.12
644.979	41.12
645.741	40.12
646.503	43.12
647.265	39.12
648.027	31.12
648.789	35.12
649.551	46.12
650.312	41.12
651.074	51.12
651.835	46.12
652.597	47.12
653.358	31.12
654.12	54.12
654.881	36.12
655.642	47.12
656.403	49.12
657.164	41.12
657.925	43.12
658.686	45.12
659.447	48.12
660.207	52.12
660.968	37.12
661.728	52.12
662.489	65.12
663.249	41.12
664.01	41.12
664.77	43.12
665.53	34.12
666.29	46.12
667.05	71.12
667.81	48.12
668.57	61.12
669.329	46.12
670.089	51.12
670.849	40.12
671.608	51.12
672.368	49.12
673.127	53.12
673.886	52.12
674.646	41.12
675.405	48.12
676.164	53.12
676.923	52.12
677.682	41.12
678.44	43.12
679.199	54.12
679.958	4.12
680.717	36.12
681.475	49.12
682.233	43.12
682.992	37.12
683.75	46.12
684.508	52.12
685.266	48.12
686.024	43.12
686.782	47.12
687.54	50.12
688.298	47.12
689.056	43.12
689.814	46.12
690.571	49.12
691.329	59.12
692.086	58.12
692.843	40.12
693.601	45.12
694.358	49.12
695.115	38.12
695.872	52.12
696.629	49.12
697.386	33.12
698.143	44.12
698.9	43.12
699.656	37.12
700.413	34.12
701.169	40.12
701.926	50.12
702.682	49.12
703.438	49.12
704.195	37.12
704.951	41.12
705.707	25.12
706.463	33.12
707.219	29.12
707.974	33.12
708.73	41.12
709.486	43.12
710.241	25.12
710.997	37.12
711.752	42.12
712.508	47.12
713.263	36.12
714.018	35.12
714.773	48.12
715.528	39.12
716.283	28.12
717.038	44.12
717.793	42.12
718.548	36.12
719.303	40.12
720.057	33.12
720.812	32.12
721.566	41.12
722.321	42.12
723.075	39.12
723.829	31.12
724.583	32.12
725.337	41.12
726.091	23.12
726.845	37.12
727.599	34.12
728.353	37.12
729.106	37.12
729.86	37.12
730.614	25.12
731.367	-231.88
732.12	35.12
732.874	42.12
733.627	46.12
734.38	36.12
735.133	30.12
735.886	35.12
736.639	30.12
737.392	29.12
738.145	23.12
738.897	31.12
739.65	29.12
740.403	29.12
741.155	40.12
741.907	39.12
742.66	34.12
743.412	37.12
744.164	36.12
744.916	34.12
745.668	34.12
746.42	35.12
747.172	34.12
747.924	26.12
748.676	23.12
749.427	29.12
750.179	25.12
750.93	43.12
751.682	39.12
752.433	22.12
753.184	29.12
753.935	38.12
754.687	24.12
755.438	31.12
756.189	40.12
756.939	28.12
757.69	28.12
758.441	42.12
759.192	29.12
759.942	23.12
760.693	45.12
761.443	26.12
762.194	39.12
762.944	30.12
763.694	25.12
764.444	24.12
765.194	31.12
765.944	23.12
766.694	33.12
767.444	25.12
768.194	35.12
768.943	32.12
769.693	20.12
770.443	35.12
771.192	40.12
771.941	17.12
772.691	27.12
773.44	21.12
774.189	41.12
774.938	27.12
775.687	30.12
776.436	23.12
777.185	32.12
777.934	31.12
778.683	30.12
779.431	42.12
780.18	36.12
780.928	15.12
781.677	22.12
782.425	28.12
783.173	40.12
783.922	16.12
784.67	16.12
785.418	26.12
786.166	42.12
786.914	22.12
787.661	15.12
788.409	29.12
789.157	34.12
789.904	21.12
790.652	27.12
791.399	16.12
792.147	32.12
792.894	23.12
793.641	20.12
794.388	213.12
795.136	27.12
795.883	27.12
796.629	19.12
797.376	23.12
798.123	25.12
798.87	39.12
799.616	25.12
800.363	39.12
801.109	24.12
801.856	26.12
802.602	24.12
803.349	33.12
804.095	29.12
804.841	25.12
805.587	28.12
806.333	29.12
807.079	40.12
807.825	31.12
808.57	17.12
809.316	40.12
810.062	21.12
810.807	26.12
811.553	27.12
812.298	30.12
813.043	39.12
813.788	26.12
814.534	21.12
815.279	20.12
816.024	24.12
816.769	42.12
817.514	22.12
818.258	31.12
819.003	30.12
819.748	475.12
820.492	23.12
821.237	153.12
821.981	30.12
822.726	31.12
823.47	35.12
824.214	22.12
824.958	29.12
825.702	32.12
826.446	23.12
827.19	21.12
827.934	27.12
828.678	29.12
829.421	31.12
830.165	23.12
830.909	28.12
831.652	14.12
832.395	34.12
833.139	25.12
833.882	46.12
834.625	21.12
835.368	16.12
836.111	14.12
836.854	39.12
837.597	40.12
838.34	21.12
839.083	27.12
839.825	24.12
840.568	25.12
841.311	34.12
842.053	27.12
842.795	29.12
843.538	30.12
844.28	26.12
845.022	7.12
845.764	24.12
846.506	17.12
847.248	32.12
847.99	16.12
848.732	38.12
849.474	16.12
850.215	26.12
850.957	26.12
851.698	24.12
852.44	23.12
853.181	34.12
853.922	29.12
854.664	35.12
855.405	24.12
856.146	29.12
856.887	22.12
857.628	31.12
858.369	5.12
859.109	27.12
859.85	17.12
860.591	20.12
861.331	33.12
862.072	23.12
862.812	24.12
863.553	27.12
864.293	42.12
865.033	20.12
865.773	31.12
866.513	23.12
867.253	33.12
867.993	18.12
868.733	21.12
869.473	18.12
870.213	36.12
870.952	22.12
871.692	24.12
872.431	42.12
873.171	27.12
873.91	29.12
874.649	22.12
875.388	35.12
876.128	29.12
876.867	27.12
877.606	28.12
878.345	27.12
879.083	26.12
879.822	31.12
880.561	29.12
881.299	25.12
882.038	32.12
882.777	22.12
883.515	22.12
884.253	244.12
884.992	40.12
885.73	28.12
886.468	24.12
887.206	33.12
887.944	41.12
888.682	23.12
889.42	32.12
890.157	27.12
890.895	29.12
891.633	-11.88
892.37	31.12
893.108	28.12
893.845	29.12
894.583	26.12
895.32	35.12
896.057	17.12
896.794	29.12
897.531	26.12
898.268	20.12
899.005	34.12
899.742	33.12
900.479	20.12
901.215	28.12
901.952	36.12
902.689	37.12
903.425	36.12
904.162	13.12
904.898	30.12
905.634	11.12
906.37	21.12
907.106	17.12
907.843	21.12
908.579	35.12
909.314	8.12
910.05	37.12
910.786	37.12
911.522	23.12
912.257	18.12
912.993	15.12
913.728	23.12
914.464	33.12
915.199	29.12
915.935	30.12
916.67	33.12
917.405	18.12
918.14	27.12
918.875	27.12
919.61	32.12
920.345	39.12
921.08	33.12
921.814	27.12
922.549	22.12
923.284	16.12
924.018	23.12
924.752	26.12
925.487	28.12
926.221	25.12
926.955	21.12
927.69	21.12
928.424	24.12
929.158	29.12
929.892	17.12
930.625	35.12
931.359	28.12
932.093	37.12
932.827	37.12
933.56	34.12
934.294	22.12
935.027	24.12
935.761	33.12
936.494	25.12
937.227	27.12
937.96	26.12
938.693	33.12
939.426	23.12
940.159	25.12
940.892	20.12
941.625	21.12
942.358	22.12
943.091	31.12
943.823	22.12
944.556	25.12
945.288	34.12
946.021	28.12
946.753	24.12
947.485	35.12
948.217	23.12
948.95	34.12
949.682	18.12
950.414	17.12
951.146	31.12
951.877	26.12
952.609	35.12
953.341	20.12
954.073	30.12
954.804	27.12
955.536	41.12
956.267	23.12
956.998	13.12
957.73	21.12
958.461	22.12
959.192	32.12
959.923	33.12
960.654	26.12
961.385	27.12
962.116	23.12
962.847	27.12
963.578	23.12
964.308	28.12
965.039	26.12
965.769	30.12
966.5	25.12
967.23	30.12
967.961	25.12
968.691	36.12
969.421	27.12
970.151	22.12
970.881	39.12
971.611	37.12
972.341	31.12
973.071	20.12
973.801	35.12
974.53	21.12
975.26	29.12
975.99	22.12
976.719	23.12
977.448	29.12
978.178	34.12
978.907	38.12
979.636	26.12
980.365	37.12
981.095	21.12
981.824	34.12
982.553	37.12
983.281	10.12
984.01	-2.88
984.739	4.12
985.468	0.12
986.196	-5.88
986.925	39.12
987.653	26.12
988.382	20.12
989.11	20.12
989.838	27.12
990.566	18.12
991.295	16.12
992.023	28.12
992.751	34.12
993.478	11.12
994.206	36.12
994.934	23.12
995.662	-0.88
996.389	-2.88
997.117	3.12
997.845	5.12
