Data from White_Bg_Subt2_012.txt Node
Date: Fri Aug 23 09:21:02 EDT 2019
User: wcc
Spectrometer: QEPB0759
Trigger mode: 0
Integration Time (sec): 1.000000E0
Scans to average: 1
Electric dark correction enabled: true
Nonlinearity correction enabled: true
Boxcar width: 0
XAxis mode: Wavelengths
Number of Pixels in Spectrum: 1044
>>>>>Begin Spectral Data<<<<<
197.938	-11.53
198.749	-21.78
199.559	-17.68
200.369	-3.33
201.179	-6.41
201.988	-11.53
202.798	-17.68
203.608	-24.86
204.417	-15.63
205.227	6.92
206.036	-10.51
206.846	-18.71
207.655	-21.78
208.464	-9.48
209.273	-16.66
210.082	-18.71
210.891	-20.76
211.7	-14.61
212.508	-14.61
213.317	-12.56
214.125	-13.58
214.934	-21.78
215.742	-7.43
216.55	4.87
217.359	-14.61
218.167	-6.41
218.975	-20.76
219.782	-18.71
220.59	-21.78
221.398	-12.56
222.206	-17.68
223.013	-9.48
223.82	-18.71
224.628	-21.78
225.435	-15.63
226.242	-25.88
227.049	-24.86
227.856	-12.56
228.663	-21.78
229.47	-9.48
230.277	-15.63
231.083	-10.51
231.89	-17.68
232.696	-24.86
233.502	-14.61
234.309	-34.09
235.115	-17.68
235.921	-13.58
236.727	-22.81
237.533	-21.78
238.339	-33.06
239.144	-26.91
239.95	-7.43
240.756	-10.51
241.561	-32.03
242.366	-16.66
243.172	-16.66
243.977	12.04
244.782	-34.08
245.587	-18.71
246.392	-17.68
247.197	-19.73
248.001	-25.89
248.806	-16.66
249.611	-25.88
250.415	0.77
251.219	-21.78
252.024	-12.56
252.828	-5.38
253.632	-11.53
254.436	-1.28
255.24	-28.96
256.044	4.87
256.848	-24.86
257.651	-22.81
258.455	-27.93
259.258	-24.86
260.062	-512.27
260.865	-24.86
261.668	-3.33
262.471	-15.63
263.274	-32.03
264.077	-12.56
264.88	-34.08
265.683	-7.43
266.486	-4.36
267.288	-5.38
268.091	11.02
268.893	-36.13
269.696	-9.48
270.498	-12.56
271.3	-37.16
272.102	-16.66
272.904	-28.96
273.706	0.77
274.508	4.87
275.309	-18.71
276.111	-9.48
276.913	3.84
277.714	-15.63
278.515	-27.93
279.317	-8.46
280.118	-1.28
280.919	-37.16
281.72	-14.61
282.521	-32.03
283.322	-9.48
284.122	-16.66
284.923	-31.01
285.724	-21.78
286.524	-18.71
287.325	-23.83
288.125	-36.14
288.925	-17.68
289.725	-42.28
290.525	-22.8
291.325	-14.61
292.125	-10.51
292.925	-20.76
293.724	-10.51
294.524	-24.86
295.324	-8.46
296.123	-27.93
296.922	-4.36
297.722	-46.37
298.521	-18.71
299.32	-11.53
300.119	-31.01
300.918	-24.86
301.716	-14.6
302.515	-32.03
303.314	-9.48
304.112	-29.98
304.911	-27.93
305.709	-1.28
306.507	-19.73
307.306	-31.01
308.104	-11.53
308.902	-2.31
309.7	-20.76
310.498	-25.88
311.295	-13.58
312.093	-17.68
312.891	-24.85
313.688	-0.26
314.485	-26.91
315.283	-15.63
316.08	-14.61
316.877	-33.06
317.674	-21.78
318.471	-20.76
319.268	-10.51
320.065	-23.83
320.862	-29.98
321.658	1.79
322.455	-2.31
323.251	-22.81
324.047	-14.61
324.844	-11.53
325.64	-18.71
326.436	-13.58
327.232	-25.88
328.028	-17.68
328.824	-17.68
329.62	-2.31
330.415	-28.95
331.211	-9.48
332.006	-19.73
332.802	-27.93
333.597	-34.08
334.392	-7.43
335.187	-14.61
335.982	-1.28
336.777	-14.61
337.572	-37.16
338.367	-17.68
339.162	-14.61
339.956	-4.36
340.751	-3.33
341.545	-16.66
342.34	-24.86
343.134	-4.36
343.928	-21.78
344.722	-20.76
345.516	-18.71
346.31	-27.93
347.104	-25.88
347.898	-11.53
348.691	-21.78
349.485	-22.81
350.278	-27.93
351.072	-8.46
351.865	-195.86
352.658	-10.51
353.452	-21.78
354.245	-19.73
355.038	-11.53
355.83	-12.56
356.623	-33.06
357.416	-7.43
358.209	-17.68
359.001	-24.86
359.794	-18.71
360.586	-24.86
361.378	-21.78
362.17	-19.73
362.963	-24.86
363.755	-22.8
364.546	-21.79
365.338	-22.81
366.13	-7.43
366.922	-28.96
367.713	-29.98
368.505	-23.83
369.296	-18.71
370.088	-13.58
370.879	-34.09
371.67	-34.08
372.461	-23.84
373.252	-16.66
374.043	-29.98
374.834	-19.74
375.625	-16.66
376.415	-28.96
377.206	-18.71
377.996	-24.86
378.787	-28.95
379.577	-23.84
380.367	-11.53
381.157	-18.71
381.947	-9.48
382.737	-15.63
383.527	-18.71
384.317	-15.63
385.107	0.77
385.896	-32.03
386.686	-29.98
387.475	-35.11
388.265	-8.46
389.054	-22.8
389.843	-19.73
390.632	-17.68
391.421	-19.73
392.21	-27.93
392.999	-23.83
393.788	-5.38
394.576	-9.48
395.365	-21.78
396.154	-6.41
396.942	-9.48
397.73	-24.86
398.519	-20.76
399.307	-14.61
400.095	-37.16
400.883	-14.61
401.671	-12.56
402.459	-13.58
403.246	-27.93
404.034	-22.81
404.822	-39.21
405.609	-27.93
406.396	-13.58
407.184	-18.71
407.971	-17.68
408.758	-22.81
409.545	-8.46
410.332	-28.96
411.119	-9.48
411.906	-19.73
412.693	-25.88
413.479	-25.88
414.266	-23.83
415.052	-13.58
415.839	-14.61
416.625	-22.81
417.411	-3.33
418.197	-15.63
418.983	-32.03
419.769	2.82
420.555	-28.96
421.341	-12.56
422.127	-21.78
422.912	-29.98
423.698	-21.78
424.483	-19.73
425.269	-44.34
426.054	-28.96
426.839	-17.68
427.624	-9.48
428.409	-15.63
429.194	-15.63
429.979	-9.48
430.764	-12.56
431.549	-15.63
432.333	-23.83
433.118	-19.73
433.902	-51.51
434.687	-53.56
435.471	-51.51
436.255	-32.03
437.039	-23.83
437.823	-34.08
438.607	-16.66
439.391	-32.03
440.175	-15.63
440.958	-15.63
441.742	-26.91
442.526	-16.66
443.309	-23.83
444.092	-32.03
444.876	-6.41
445.659	-28.96
446.442	-34.08
447.225	-22.81
448.008	-28.95
448.791	-16.66
449.573	7.94
450.356	-23.83
451.139	-8.46
451.921	-27.93
452.704	-7.43
453.486	-19.73
454.268	-26.91
455.05	-18.71
455.833	-24.86
456.615	-23.83
457.396	-10.51
458.178	-15.63
458.96	-20.76
459.742	-13.58
460.523	-25.88
461.305	-12.56
462.086	-5.38
462.868	-28.95
463.649	-15.63
464.43	-6.41
465.211	-14.6
465.992	-17.68
466.773	-17.68
467.554	-12.56
468.335	-28.96
469.115	-14.61
469.896	-10.51
470.676	-17.68
471.457	-34.08
472.237	-12.56
473.018	-34.08
473.798	-5.38
474.578	-20.76
475.358	-10.51
476.138	-4.36
476.918	-12.56
477.697	-9.48
478.477	0.77
479.257	-20.76
480.036	-22.81
480.816	-16.66
481.595	-25.88
482.374	-25.88
483.153	-4.36
483.932	-24.86
484.711	-27.93
485.49	-60.73
486.269	-29.98
487.048	-55.61
487.827	-35.11
488.605	-28.96
489.384	-32.03
490.162	-26.91
490.941	-35.1
491.719	-27.93
492.497	-37.16
493.275	-31.01
494.053	-12.56
494.831	-26.91
495.609	-10.51
496.387	-16.66
497.164	-24.86
497.942	-17.68
498.72	-17.68
499.497	-18.71
500.274	-5.38
501.052	-7.43
501.829	-3.33
502.606	-10.51
503.383	-21.78
504.16	-4.36
504.937	-35.11
505.714	-15.63
506.49	15.12
507.267	-14.61
508.043	-12.56
508.82	-14.6
509.596	-1.28
510.373	-12.56
511.149	-15.63
511.925	-29.98
512.701	4.87
513.477	-12.56
514.253	-2.31
515.029	-11.53
515.804	-24.86
516.58	-11.53
517.356	-2.31
518.131	-10.51
518.906	14.1
519.682	-14.61
520.457	-18.71
521.232	1.79
522.007	-14.61
522.782	1.79
523.557	3.84
524.332	-14.61
525.107	-5.38
525.881	-3.33
526.656	-6.41
527.43	-3.33
528.205	-22.81
528.979	-15.63
529.753	3.84
530.527	-1.28
531.302	1.79
532.076	-21.78
532.849	2.82
533.623	-13.58
534.397	-10.51
535.171	-0.26
535.944	-4.36
536.718	-23.83
537.491	-15.63
538.265	-16.66
539.038	-16.66
539.811	-25.88
540.584	-40.23
541.357	-41.26
542.13	-68.92
542.903	-59.7
543.676	-59.71
544.449	-52.53
545.221	-50.48
545.994	-12.56
546.766	-25.88
547.539	-19.73
548.311	-45.36
549.083	-17.68
549.855	-25.89
550.627	-11.53
551.399	-16.66
552.171	-25.88
552.943	-11.53
553.715	-11.53
554.486	-4.36
555.258	14.1
556.029	5.89
556.801	13.07
557.572	-5.38
558.343	-0.26
559.114	-0.26
559.886	2.82
560.657	-4.36
561.427	-2.31
562.198	-10.51
562.969	3.84
563.74	18.19
564.51	2.82
565.281	-3.33
566.051	0.77
566.822	-0.26
567.592	6.92
568.362	2.82
569.132	-6.41
569.902	11.02
570.672	7.94
571.442	1.79
572.212	9.99
572.982	16.14
573.751	-1.28
574.521	-0.26
575.29	3.84
576.06	-9.48
576.829	-17.68
577.598	-13.58
578.367	-24.86
579.136	-0.26
579.905	-25.88
580.674	-13.58
581.443	-24.86
582.212	-22.81
582.981	-18.71
583.749	-8.46
584.518	-23.83
585.286	-11.53
586.054	-35.1
586.823	-15.63
587.591	-19.73
588.359	-13.58
589.127	-6.41
589.895	-9.48
590.663	-42.28
591.431	-23.83
592.198	-10.51
592.966	-18.71
593.734	-13.58
594.501	-4.36
595.268	4.87
596.036	-10.51
596.803	4.87
597.57	-12.56
598.337	-5.38
599.104	-43.31
599.871	-23.83
600.638	-4.36
601.405	-11.53
602.171	7.94
602.938	-7.43
603.704	-3.33
604.471	-1.28
605.237	-6.41
606.004	-18.71
606.77	-25.88
607.536	-22.8
608.302	-26.9
609.068	-47.4
609.834	-50.48
610.599	-105.82
611.365	-69.96
612.131	-50.48
612.896	-41.25
613.662	-49.45
614.427	-9.48
615.193	-41.26
615.958	-34.08
616.723	-23.83
617.488	-8.46
618.253	-11.53
619.018	-34.08
619.783	-24.86
620.548	-32.03
621.312	-13.58
622.077	-19.73
622.842	-20.76
623.606	-18.7
624.37	-29.98
625.135	-6.41
625.899	-12.56
626.663	-19.73
627.427	-20.76
628.191	-0.26
628.955	-41.25
629.719	-13.58
630.483	-37.16
631.246	-19.73
632.01	-17.68
632.773	-19.73
633.537	3.84
634.3	-5.38
635.063	-7.43
635.827	-2.31
636.59	-9.48
637.353	-10.51
638.116	2.82
638.879	-13.58
639.641	-5.38
640.404	-15.63
641.167	-2.31
641.929	-17.68
642.692	2.82
643.454	-20.76
644.216	-21.78
644.979	-5.38
645.741	-10.51
646.503	-8.46
647.265	-8.46
648.027	-12.55
648.789	-9.48
649.551	-6.41
650.312	-13.58
651.074	-1.28
651.835	4.87
652.597	-8.46
653.358	-11.53
654.12	-6.41
654.881	-14.61
655.642	-9.48
656.403	-4.36
657.164	-19.73
657.925	4.87
658.686	-5.38
659.447	-2.31
660.207	-1.28
660.968	-4.36
661.728	-6.41
662.489	-5.38
663.249	-14.61
664.01	4.87
664.77	-15.63
665.53	6.92
666.29	-11.53
667.05	-16.66
667.81	11.02
668.57	5.89
669.329	7.94
670.089	-2.31
670.849	-13.58
671.608	3.84
672.368	-8.46
673.127	0.77
673.886	3.84
674.646	5.89
675.405	1.79
676.164	1.79
676.923	-20.76
677.682	-6.41
678.44	9.99
679.199	11.02
679.958	-32.02
680.717	-4.36
681.475	3.84
682.233	9.99
682.992	13.07
683.75	-12.56
684.508	-0.26
685.266	5.89
686.024	-2.31
686.782	6.92
687.54	3.84
688.298	-2.31
689.056	-4.36
689.814	-1.28
690.571	-3.33
691.329	-5.38
692.086	-1.28
692.843	11.02
693.601	8.97
694.358	-0.26
695.115	8.97
695.872	7.94
696.629	-10.51
697.386	-6.41
698.143	-1.28
698.9	-9.48
699.656	6.92
700.413	2.82
701.169	-5.38
701.926	-2.31
702.682	13.07
703.438	6.92
704.195	-6.41
704.951	-6.41
705.707	-20.76
706.463	-10.51
707.219	0.77
707.974	-31.01
708.73	-34.09
709.486	-25.88
710.241	-11.53
710.997	-6.41
711.752	-24.86
712.508	-7.43
713.263	-4.36
714.018	9.99
714.773	-9.48
715.528	1.79
716.283	-9.48
717.038	-14.61
717.793	-18.71
718.548	-12.56
719.303	2.82
720.057	4.87
720.812	-10.51
721.566	-7.43
722.321	-42.28
723.075	-12.56
723.829	-36.13
724.583	-13.58
725.337	-15.63
726.091	-18.71
726.845	-10.51
727.599	-17.68
728.353	-21.78
729.106	-19.73
729.86	-13.58
730.614	-20.76
731.367	-179.18
732.12	-11.53
732.874	-13.58
733.627	-7.43
734.38	-2.31
735.133	-3.33
735.886	-5.38
736.639	-14.61
737.392	-28.96
738.145	-12.56
738.897	-4.36
739.65	-2.31
740.403	8.97
741.155	-13.58
741.907	-13.58
742.66	-22.8
743.412	-5.38
744.164	-17.68
744.916	-8.46
745.668	-12.56
746.42	-40.23
747.172	-2.31
747.924	-15.63
748.676	-12.56
749.427	-20.76
750.179	-21.78
750.93	-9.48
751.682	-8.46
752.433	-12.56
753.184	-23.83
753.935	-18.71
754.687	-6.41
755.438	-12.56
756.189	-14.61
756.939	-10.51
757.69	-5.38
758.441	-10.51
759.192	-14.61
759.942	-6.41
760.693	-28.96
761.443	-3.33
762.194	-4.36
762.944	-18.71
763.694	-17.68
764.444	-0.26
765.194	-9.48
765.944	-6.41
766.694	-23.83
767.444	-19.73
768.194	-16.66
768.943	-24.86
769.693	-38.18
770.443	-24.86
771.192	-52.53
771.941	-17.69
772.691	-27.93
773.44	-33.06
774.189	-1.28
774.938	-16.66
775.687	-21.78
776.436	-31.01
777.185	-37.16
777.934	-11.53
778.683	-13.58
779.431	-22.81
780.18	-25.88
780.928	-19.73
781.677	-17.68
782.425	-19.73
783.173	-26.91
783.922	-25.88
784.67	-17.68
785.418	-33.06
786.166	-16.66
786.914	1.79
787.661	-27.93
788.409	-24.86
789.157	-15.63
789.904	-20.76
790.652	-20.76
791.399	-22.81
792.147	-21.78
792.894	-8.46
793.641	-11.53
794.388	-58.24
795.136	-1.28
795.883	-0.26
796.629	-22.81
797.376	-40.24
798.123	-16.66
798.87	-9.48
799.616	-33.06
800.363	-15.63
801.109	-18.7
801.856	-22.81
802.602	-21.79
803.349	-8.46
804.095	-10.5
804.841	-44.33
805.587	-16.66
806.333	-14.61
807.079	-17.68
807.825	-12.56
808.57	-29.98
809.316	-15.63
810.062	-32.03
810.807	-18.71
811.553	-8.46
812.298	-12.56
813.043	-13.58
813.788	-17.68
814.534	-9.48
815.279	-21.78
816.024	-34.08
816.769	-19.73
817.514	-6.41
818.258	-27.93
819.003	-13.58
819.748	-266.11
820.492	-6.41
821.237	-85.8
821.981	-17.68
822.726	-21.78
823.47	-17.68
824.214	2.82
824.958	-54.58
825.702	-47.41
826.446	-35.11
827.19	-13.58
827.934	-10.5
828.678	-11.53
829.421	-12.55
830.165	-11.53
830.909	2.82
831.652	-22.81
832.395	-16.66
833.139	-7.43
833.882	-28.95
834.625	-21.78
835.368	-24.86
836.111	-26.91
836.854	-45.36
837.597	-19.73
838.34	-29.98
839.083	-2.31
839.825	-24.85
840.568	-2.31
841.311	-21.78
842.053	-8.46
842.795	-15.63
843.538	-21.78
844.28	-14.61
845.022	-14.61
845.764	-21.78
846.506	-2.31
847.248	-34.08
847.99	-16.66
848.732	-16.66
849.474	-26.91
850.215	-16.66
850.957	-35.11
851.698	-17.68
852.44	-15.63
853.181	-16.66
853.922	-27.93
854.664	-9.48
855.405	-25.88
856.146	-14.61
856.887	-15.63
857.628	-22.8
858.369	-20.76
859.109	-20.75
859.85	-16.66
860.591	-4.36
861.331	-39.21
862.072	-8.46
862.812	-32.04
863.553	-15.63
864.293	-34.08
865.033	-14.61
865.773	-3.33
866.513	-10.51
867.253	-5.38
867.993	-20.76
868.733	-32.03
869.473	-27.93
870.213	-32.03
870.952	-1.28
871.692	-23.83
872.431	-9.48
873.171	-24.86
873.91	-10.51
874.649	-11.53
875.388	-7.43
876.128	-21.78
876.867	-23.84
877.606	-17.68
878.345	-16.66
879.083	-17.68
879.822	-17.68
880.561	-23.83
881.299	-28.96
882.038	-17.68
882.777	8.97
883.515	-33.05
884.253	0.76
884.992	-24.86
885.73	-24.86
886.468	-1.28
887.206	-10.5
887.944	-27.93
888.682	-33.06
889.42	-20.76
890.157	-9.48
890.895	-10.51
891.633	-19.71
892.37	-38.18
893.108	-22.81
893.845	-19.73
894.583	-25.88
895.32	-11.53
896.057	-17.68
896.794	-18.71
897.531	-24.86
898.268	-24.86
899.005	-17.68
899.742	-16.66
900.479	-23.83
901.215	-13.58
901.952	-19.73
902.689	-8.46
903.425	-13.58
904.162	-0.26
904.898	-24.86
905.634	-8.46
906.37	-29.98
907.106	-8.46
907.843	-14.61
908.579	-16.66
909.314	-13.58
910.05	-27.93
910.786	-19.73
911.522	-21.79
912.257	-46.38
912.993	-17.68
913.728	-6.41
914.464	-27.93
915.199	-17.68
915.935	-28.96
916.67	-17.68
917.405	-25.88
918.14	-20.76
918.875	-9.48
919.61	4.87
920.345	-42.28
921.08	-33.05
921.814	-15.63
922.549	-20.76
923.284	-31.01
924.018	-8.46
924.752	-34.08
925.487	-19.73
926.221	-18.71
926.955	-16.66
927.69	-14.61
928.424	-25.88
929.158	-21.78
929.892	-20.76
930.625	4.87
931.359	-6.41
932.093	-10.51
932.827	-34.09
933.56	-19.73
934.294	-8.46
935.027	-17.68
935.761	-20.76
936.494	-14.61
937.227	-38.19
937.96	-16.66
938.693	-19.73
939.426	-15.63
940.159	-33.06
940.892	-9.48
941.625	-0.26
942.358	-18.71
943.091	-23.83
943.823	-32.04
944.556	-19.74
945.288	-3.33
946.021	-29.98
946.753	-13.58
947.485	-25.88
948.217	-12.56
948.95	-25.88
949.682	-20.76
950.414	-15.63
951.146	-23.83
951.877	-9.48
952.609	16.15
953.341	-19.73
954.073	-15.63
954.804	-18.71
955.536	-18.71
956.267	-34.08
956.998	-6.41
957.73	-33.06
958.461	-10.51
959.192	-13.58
959.923	-25.88
960.654	-18.71
961.385	-9.48
962.116	-5.38
962.847	-15.63
963.578	-15.63
964.308	-15.63
965.039	-11.53
965.769	-18.71
966.5	-29.98
967.23	-17.68
967.961	-5.38
968.691	-16.66
969.421	-19.74
970.151	-36.13
970.881	-36.14
971.611	-33.06
972.341	-22.81
973.071	-29.98
973.801	-1.28
974.53	-9.48
975.26	-19.73
975.99	-38.18
976.719	-37.16
977.448	0.77
978.178	-19.73
978.907	-13.58
979.636	-27.94
980.365	-36.13
981.095	-18.71
981.824	-15.63
982.553	-25.88
983.281	-18.71
984.01	3.85
984.739	7.95
985.468	-8.47
986.196	-7.44
986.925	-20.75
987.653	-23.83
988.382	-14.61
989.11	-40.23
989.838	-12.56
990.566	-15.63
991.295	-25.88
992.023	-18.71
992.751	-15.63
993.478	-11.53
994.206	-14.61
994.934	-23.83
995.662	-5.39
996.389	7.95
997.117	-11.54
997.845	13.08
