Data from White_Bg_Subt2_001.txt Node
Date: Fri Aug 23 09:20:43 EDT 2019
User: wcc
Spectrometer: QEPB0759
Trigger mode: 0
Integration Time (sec): 1.000000E0
Scans to average: 1
Electric dark correction enabled: true
Nonlinearity correction enabled: true
Boxcar width: 0
XAxis mode: Wavelengths
Number of Pixels in Spectrum: 1044
>>>>>Begin Spectral Data<<<<<
197.938	-7.69
198.749	-19.99
199.559	-16.91
200.369	-7.69
201.179	2.56
201.988	-30.24
202.798	-24.09
203.608	-30.24
204.417	-29.21
205.227	-3.59
206.036	-12.81
206.846	-25.11
207.655	-14.86
208.464	-22.04
209.273	-19.99
210.082	-23.07
210.891	-15.89
211.7	-27.17
212.508	-15.89
213.317	-17.94
214.125	-17.94
214.934	-8.71
215.742	-21.02
216.55	-16.92
217.359	-15.89
218.167	-12.81
218.975	-40.49
219.782	-13.84
220.59	-39.47
221.398	-21.02
222.206	-15.89
223.013	-14.86
223.82	-14.87
224.628	-21.02
225.435	-9.74
226.242	-28.19
227.049	-34.34
227.856	-11.79
228.663	-16.91
229.47	-5.64
230.277	-1.54
231.083	-24.09
231.89	-26.14
232.696	-30.24
233.502	-24.09
234.309	-31.27
235.115	-14.86
235.921	-15.89
236.727	-19.99
237.533	-38.44
238.339	-33.31
239.144	-17.94
239.95	-13.84
240.756	-9.74
241.561	-37.41
242.366	-44.59
243.172	-16.91
243.977	-16.91
244.782	-32.29
245.587	-10.76
246.392	-16.91
247.197	-17.94
248.001	-24.09
248.806	-17.94
249.611	-15.89
250.415	-2.56
251.219	-23.06
252.024	-0.51
252.828	-8.71
253.632	-9.74
254.436	-6.66
255.24	-33.31
256.044	-15.89
256.848	-18.96
257.651	-14.86
258.455	-39.47
259.258	-21.01
260.062	1583.45
260.865	-27.16
261.668	-7.69
262.471	-25.12
263.274	-36.39
264.077	-17.94
264.88	-36.39
265.683	-5.64
266.486	-12.81
267.288	-1.54
268.091	-8.71
268.893	-49.72
269.696	-25.11
270.498	-17.94
271.3	-19.99
272.102	-19.99
272.904	-33.32
273.706	-3.59
274.508	-19.99
275.309	-40.49
276.111	-24.09
276.913	-8.71
277.714	-13.84
278.515	-26.14
279.317	-5.64
280.118	-22.04
280.919	-28.19
281.72	-22.04
282.521	-28.19
283.322	-13.84
284.122	-9.74
284.923	-25.11
285.724	-15.89
286.524	-24.09
287.325	-33.31
288.125	-35.37
288.925	-16.91
289.725	-38.44
290.525	-23.06
291.325	-24.09
292.125	-13.84
292.925	-31.26
293.724	-19.99
294.524	-37.42
295.324	-14.87
296.123	-28.19
296.922	-19.99
297.722	-14.86
298.521	-23.06
299.32	-3.59
300.119	-46.65
300.918	-21.01
301.716	-8.71
302.515	-26.14
303.314	-18.96
304.112	-28.19
304.911	-37.41
305.709	-23.06
306.507	-14.86
307.306	-27.16
308.104	-18.96
308.902	-12.81
309.7	-23.06
310.498	-26.14
311.295	-28.19
312.093	-19.99
312.891	-35.36
313.688	-11.79
314.485	-28.19
315.283	-3.59
316.08	-18.96
316.877	-31.26
317.674	-8.71
318.471	-40.5
319.268	-8.71
320.065	-8.71
320.862	-35.36
321.658	-2.56
322.455	-5.64
323.251	-22.04
324.047	-6.66
324.844	-7.69
325.64	-25.12
326.436	-9.74
327.232	-14.86
328.028	-7.69
328.824	-11.79
329.62	-15.89
330.415	-17.94
331.211	-11.79
332.006	-21.01
332.802	-33.31
333.597	-25.11
334.392	-19.99
335.187	-12.81
335.982	9.74
336.777	-1.54
337.572	-27.17
338.367	-19.99
339.162	-31.26
339.956	-15.89
340.751	-30.24
341.545	-10.76
342.34	-31.26
343.134	-8.71
343.928	-16.91
344.722	-21.01
345.516	-19.99
346.31	-38.44
347.104	-13.84
347.898	-10.76
348.691	-24.09
349.485	-13.84
350.278	-21.01
351.072	-25.11
351.865	-487.15
352.658	10.76
353.452	-30.24
354.245	-9.74
355.038	-38.44
355.83	-9.74
356.623	-19.99
357.416	-23.07
358.209	-9.74
359.001	-26.14
359.794	-21.01
360.586	-31.26
361.378	-28.19
362.17	-39.47
362.963	-31.27
363.755	-19.99
364.546	-18.97
365.338	-22.04
366.13	-6.66
366.922	-39.46
367.713	-32.29
368.505	-24.09
369.296	-19.99
370.088	-10.77
370.879	-23.07
371.67	-36.39
372.461	-14.86
373.252	-11.79
374.043	-26.14
374.834	-7.69
375.625	-13.84
376.415	-29.21
377.206	-22.04
377.996	-23.06
378.787	-22.04
379.577	-27.17
380.367	-5.64
381.157	-8.71
381.947	-12.81
382.737	-19.99
383.527	-11.79
384.317	-8.71
385.107	-22.04
385.896	-31.26
386.686	-16.91
387.475	-34.34
388.265	-6.66
389.054	-26.13
389.843	-25.12
390.632	-25.11
391.421	-25.11
392.21	-15.89
392.999	-17.94
393.788	-17.94
394.576	-3.59
395.365	-22.04
396.154	-8.71
396.942	-25.12
397.73	-26.14
398.519	-26.14
399.307	-25.11
400.095	-41.51
400.883	-18.96
401.671	-12.81
402.459	-19.99
403.246	-37.42
404.034	-18.96
404.822	-25.11
405.609	-28.19
406.396	-12.81
407.184	-15.89
407.971	-7.69
408.758	-10.76
409.545	-4.61
410.332	-34.34
411.119	-15.89
411.906	-8.71
412.693	-29.21
413.479	-14.86
414.266	-25.12
415.052	-16.91
415.839	-18.96
416.625	-32.29
417.411	-11.79
418.197	2.56
418.983	-31.26
419.769	-13.84
420.555	-26.14
421.341	-8.71
422.127	-26.14
422.912	-38.44
423.698	-10.76
424.483	-25.11
425.269	-30.24
426.054	-27.17
426.839	-28.19
427.624	-14.86
428.409	-29.22
429.194	-18.96
429.979	-5.64
430.764	-8.71
431.549	-19.99
432.333	-8.71
433.118	-31.27
433.902	-34.34
434.687	-54.84
435.471	-49.71
436.255	-24.09
437.039	-25.12
437.823	-34.34
438.607	-15.89
439.391	-29.21
440.175	-36.39
440.958	-18.96
441.742	-24.09
442.526	-21.02
443.309	-27.16
444.092	-29.21
444.876	-17.94
445.659	-38.44
446.442	-34.34
447.225	-38.44
448.008	-28.19
448.791	-28.19
449.573	-8.71
450.356	-24.09
451.139	-26.14
451.921	-22.04
452.704	-15.89
453.486	-29.21
454.268	-31.26
455.05	-8.71
455.833	-18.96
456.615	-15.89
457.396	-14.86
458.178	-19.99
458.96	-31.27
459.742	-10.76
460.523	-30.24
461.305	-24.09
462.086	-12.81
462.868	-28.18
463.649	-27.16
464.43	-11.79
465.211	-14.86
465.992	-16.91
466.773	-5.64
467.554	-4.61
468.335	-19.99
469.115	-25.11
469.896	-0.51
470.676	-23.07
471.457	-28.19
472.237	-2.56
473.018	-16.91
473.798	-17.94
474.578	-17.94
475.358	-27.16
476.138	-13.84
476.918	-11.79
477.697	-9.74
478.477	-26.14
479.257	-21.01
480.036	-13.84
480.816	-39.47
481.595	-19.99
482.374	-49.72
483.153	-26.14
483.932	-26.14
484.711	-21.01
485.49	-56.89
486.269	-35.37
487.048	-56.9
487.827	-45.61
488.605	-39.47
489.384	-43.57
490.162	-35.36
490.941	-25.11
491.719	-10.76
492.497	-38.44
493.275	-19.99
494.053	-8.71
494.831	-32.29
495.609	-14.86
496.387	-18.96
497.164	-28.19
497.942	-14.86
498.72	-17.94
499.497	-31.27
500.274	-3.59
501.052	-13.84
501.829	0.51
502.606	-8.71
503.383	-21.01
504.16	6.66
504.937	-23.06
505.714	-15.89
506.49	8.71
507.267	-17.94
508.043	-22.04
508.82	-17.94
509.596	1.54
510.373	-21.01
511.149	-8.71
511.925	-26.14
512.701	-2.56
513.477	-12.81
514.253	-10.76
515.029	-17.94
515.804	-5.64
516.58	-9.74
517.356	-10.76
518.131	-4.61
518.906	10.76
519.682	-5.64
520.457	-19.99
521.232	12.81
522.007	-9.74
522.782	-6.66
523.557	9.74
524.332	-19.99
525.107	0.51
525.881	-5.64
526.656	-7.69
527.43	-3.59
528.205	-11.79
528.979	-11.79
529.753	5.64
530.527	-11.79
531.302	-5.64
532.076	-14.86
532.849	-9.74
533.623	-10.76
534.397	-1.54
535.171	-0.51
535.944	-3.59
536.718	-32.29
537.491	-6.66
538.265	-29.22
539.038	-15.89
539.811	-24.09
540.584	-30.24
541.357	-45.61
542.13	-55.85
542.903	-53.8
543.676	-55.86
544.449	-52.79
545.221	-47.66
545.994	-26.14
546.766	-41.51
547.539	-25.11
548.311	-51.76
549.083	-27.16
549.855	-29.22
550.627	-31.26
551.399	-24.09
552.171	-18.96
552.943	-7.69
553.715	-10.76
554.486	-5.64
555.258	10.76
556.029	-8.71
556.801	3.59
557.572	4.61
558.343	7.69
559.114	-13.84
559.886	-0.51
560.657	2.56
561.427	0.51
562.198	0.51
562.969	12.81
563.74	13.84
564.51	-2.56
565.281	-13.84
566.051	17.94
566.822	13.84
567.592	6.66
568.362	9.74
569.132	-6.66
569.902	-1.54
570.672	-1.54
571.442	-5.64
572.212	-5.64
572.982	18.96
573.751	-18.96
574.521	2.56
575.29	6.66
576.06	-23.06
576.829	-11.79
577.598	-17.94
578.367	-24.09
579.136	-3.59
579.905	-18.96
580.674	-8.71
581.443	-23.06
582.212	-36.39
582.981	-23.06
583.749	-1.54
584.518	-37.41
585.286	-6.66
586.054	-30.23
586.823	-14.86
587.591	-37.42
588.359	-13.84
589.127	-29.21
589.895	0.51
590.663	-32.28
591.431	-8.71
592.198	-18.96
592.966	-0.51
593.734	-19.99
594.501	-9.74
595.268	9.74
596.036	-14.86
596.803	1.54
597.57	-8.71
598.337	-13.84
599.104	-34.34
599.871	1.54
600.638	-17.94
601.405	-6.66
602.171	-0.51
602.938	-22.03
603.704	-5.64
604.471	-5.64
605.237	-10.76
606.004	-34.34
606.77	-22.04
607.536	-17.94
608.302	-8.71
609.068	-41.51
609.834	-58.94
610.599	-116.32
611.365	-72.27
612.131	-60.99
612.896	-29.21
613.662	-53.81
614.427	-27.16
615.193	-43.56
615.958	-23.06
616.723	-18.96
617.488	-23.07
618.253	-11.79
619.018	-18.96
619.783	-29.21
620.548	-18.96
621.312	-28.19
622.077	-9.74
622.842	-36.39
623.606	-23.06
624.37	-26.14
625.135	-23.06
625.899	-5.64
626.663	-12.81
627.427	-22.04
628.191	10.76
628.955	-29.21
629.719	-23.06
630.483	-31.26
631.246	-26.14
632.01	-29.21
632.773	-25.11
633.537	-8.71
634.3	-4.61
635.063	-0.51
635.827	-7.69
636.59	-22.04
637.353	-13.84
638.116	-3.59
638.879	-15.89
639.641	-1.54
640.404	-6.66
641.167	3.59
641.929	-13.84
642.692	-15.89
643.454	-11.79
644.216	-8.71
644.979	-24.09
645.741	-12.81
646.503	-11.79
647.265	-4.61
648.027	-25.11
648.789	-9.74
649.551	-7.69
650.312	-19.99
651.074	-6.66
651.835	-21.01
652.597	-17.94
653.358	-14.86
654.12	3.59
654.881	-5.64
655.642	-5.64
656.403	-16.91
657.164	-22.04
657.925	-3.59
658.686	-4.61
659.447	-24.09
660.207	-5.64
660.968	0.51
661.728	-15.89
662.489	-13.84
663.249	-13.84
664.01	-7.69
664.77	-10.76
665.53	1.54
666.29	-19.99
667.05	-17.94
667.81	3.59
668.57	3.59
669.329	-7.69
670.089	-14.86
670.849	-9.74
671.608	-0.51
672.368	-6.66
673.127	-5.64
673.886	3.59
674.646	-13.84
675.405	-0.51
676.164	3.59
676.923	-3.59
677.682	-5.64
678.44	2.56
679.199	4.61
679.958	-41.5
680.717	3.59
681.475	0.51
682.233	12.81
682.992	-2.56
683.75	-8.71
684.508	-3.59
685.266	-3.59
686.024	-4.61
686.782	0.51
687.54	2.56
688.298	-12.81
689.056	-2.56
689.814	0.51
690.571	-8.71
691.329	-5.64
692.086	-1.54
692.843	4.61
693.601	-2.56
694.358	-11.79
695.115	3.59
695.872	7.69
696.629	-0.51
697.386	-2.56
698.143	-4.61
698.9	-10.76
699.656	-7.69
700.413	-0.51
701.169	-7.69
701.926	-15.89
702.682	6.66
703.438	12.81
704.195	-8.71
704.951	-2.56
705.707	-34.34
706.463	-7.69
707.219	-7.69
707.974	-27.17
708.73	-22.04
709.486	-26.14
710.241	-10.76
710.997	-6.66
711.752	-12.81
712.508	-10.76
713.263	-14.86
714.018	-12.81
714.773	-6.66
715.528	-10.76
716.283	-10.76
717.038	1.54
717.793	-22.04
718.548	-6.66
719.303	-7.69
720.057	-11.79
720.812	-21.02
721.566	-15.89
722.321	-34.34
723.075	-15.89
723.829	-39.46
724.583	-1.54
725.337	-14.86
726.091	-15.89
726.845	-10.76
727.599	-7.69
728.353	-6.66
729.106	-23.07
729.86	-30.24
730.614	-12.81
731.367	-366.57
732.12	-27.17
732.874	-15.89
733.627	-14.86
734.38	-9.74
735.133	-3.59
735.886	-9.74
736.639	-35.37
737.392	-16.91
738.145	-2.56
738.897	-0.51
739.65	1.54
740.403	-24.09
741.155	-21.01
741.907	-25.11
742.66	-21.01
743.412	-8.71
744.164	-12.81
744.916	0.51
745.668	-6.66
746.42	-18.96
747.172	-10.76
747.924	-26.14
748.676	-14.87
749.427	-12.81
750.179	-21.01
750.93	-12.81
751.682	-21.02
752.433	-22.04
753.184	-25.11
753.935	-16.91
754.687	-26.14
755.438	-19.99
756.189	-14.86
756.939	-26.14
757.69	-14.86
758.441	-13.84
759.192	-22.04
759.942	-14.86
760.693	-17.94
761.443	-19.99
762.194	-6.66
762.944	-14.87
763.694	-18.96
764.444	-18.96
765.194	-12.81
765.944	-21.01
766.694	-28.19
767.444	-22.04
768.194	-2.56
768.943	-18.97
769.693	-32.29
770.443	-25.11
771.192	-41.51
771.941	-5.64
772.691	-27.16
773.44	-25.11
774.189	-12.81
774.938	-19.99
775.687	-19.99
776.436	-31.26
777.185	-29.21
777.934	-31.27
778.683	-24.09
779.431	-9.74
780.18	-18.96
780.928	4.61
781.677	-12.81
782.425	-24.09
783.173	-18.96
783.922	-25.11
784.67	-11.79
785.418	-31.26
786.166	-9.74
786.914	-3.59
787.661	-22.04
788.409	-36.39
789.157	-10.76
789.904	-37.42
790.652	-17.94
791.399	-19.99
792.147	-26.14
792.894	-3.59
793.641	-23.06
794.388	220.19
795.136	-2.56
795.883	-10.76
796.629	-23.06
797.376	-29.22
798.123	-4.61
798.87	-13.84
799.616	-34.34
800.363	-28.19
801.109	-26.13
801.856	-27.16
802.602	-14.87
803.349	-18.96
804.095	-21.01
804.841	-28.19
805.587	-9.74
806.333	-18.96
807.079	-16.91
807.825	-5.64
808.57	-31.26
809.316	-19.99
810.062	-32.29
810.807	-19.99
811.553	-2.56
812.298	-27.16
813.043	-12.81
813.788	-8.71
814.534	-9.74
815.279	-23.06
816.024	-26.14
816.769	-21.01
817.514	-26.14
818.258	-36.39
819.003	-9.74
819.748	-205.16
820.492	-11.79
821.237	-80.96
821.981	0.51
822.726	-26.14
823.47	-26.13
824.214	-29.21
824.958	-33.31
825.702	-44.59
826.446	-35.36
827.19	-12.81
827.934	-36.38
828.678	-3.59
829.421	-30.23
830.165	-23.06
830.909	-17.94
831.652	-33.31
832.395	-22.04
833.139	-14.86
833.882	-24.08
834.625	-22.04
835.368	-13.84
836.111	-16.91
836.854	-33.31
837.597	-21.01
838.34	-30.24
839.083	-19.99
839.825	-13.84
840.568	-9.74
841.311	-17.94
842.053	-6.66
842.795	-13.84
843.538	-15.89
844.28	-24.09
845.022	-21.02
845.764	-21.01
846.506	-10.76
847.248	-32.29
847.99	-28.19
848.732	-5.64
849.474	-32.29
850.215	-27.17
850.957	-26.14
851.698	-27.17
852.44	-23.06
853.181	-4.61
853.922	-32.29
854.664	-8.71
855.405	-31.26
856.146	-15.89
856.887	-16.91
857.628	-27.16
858.369	-17.94
859.109	-28.19
859.85	-31.27
860.591	-18.96
861.331	-27.17
862.072	-16.92
862.812	-25.12
863.553	-14.86
864.293	-34.34
865.033	-13.84
865.773	-4.61
866.513	-17.94
867.253	-24.09
867.993	-18.96
868.733	-28.19
869.473	-33.31
870.213	-27.16
870.952	-28.19
871.692	-18.96
872.431	-13.84
873.171	-21.01
873.91	-1.54
874.649	-22.04
875.388	-17.94
876.128	-24.09
876.867	-35.37
877.606	-28.19
878.345	-22.04
879.083	-18.97
879.822	-30.24
880.561	-26.14
881.299	-18.96
882.038	-15.89
882.777	7.69
883.515	-34.34
884.253	-6.59
884.992	-15.89
885.73	-11.79
886.468	-12.81
887.206	-26.13
887.944	-36.39
888.682	-15.89
889.42	-23.06
890.157	-14.86
890.895	-7.69
891.633	-45.57
892.37	-34.34
893.108	-27.16
893.845	-10.76
894.583	-13.84
895.32	3.59
896.057	-27.17
896.794	-19.99
897.531	-28.19
898.268	-13.84
899.005	-21.02
899.742	-17.94
900.479	-32.29
901.215	-17.94
901.952	-21.02
902.689	-19.99
903.425	-15.89
904.162	-2.56
904.898	-17.94
905.634	-4.61
906.37	-24.09
907.106	-7.69
907.843	-17.94
908.579	-30.24
909.314	-11.79
910.05	-26.14
910.786	-10.76
911.522	-23.07
912.257	-45.61
912.993	-2.56
913.728	-26.14
914.464	-28.19
915.199	-18.97
915.935	-19.99
916.67	-27.17
917.405	-17.94
918.14	-28.19
918.875	-8.71
919.61	-10.76
920.345	-26.14
921.08	-46.63
921.814	-18.96
922.549	-13.84
923.284	-32.29
924.018	-29.22
924.752	-38.44
925.487	-32.29
926.221	-15.89
926.955	-13.84
927.69	-25.12
928.424	-9.74
929.158	-25.11
929.892	-18.97
930.625	-6.66
931.359	-17.94
932.093	2.56
932.827	-24.09
933.56	-19.99
934.294	-11.79
935.027	-9.74
935.761	-18.96
936.494	-18.96
937.227	-26.14
937.96	-25.11
938.693	-24.09
939.426	-12.81
940.159	-39.46
940.892	-28.19
941.625	-21.01
942.358	-30.24
943.091	-26.14
943.823	-31.27
944.556	-25.12
945.288	-10.76
946.021	-10.76
946.753	-18.97
947.485	-24.09
948.217	-13.84
948.95	-37.41
949.682	-18.97
950.414	-23.07
951.146	-25.11
951.877	-11.79
952.609	6.66
953.341	-18.96
954.073	-25.11
954.804	-15.89
955.536	-4.61
956.267	-34.34
956.998	-0.51
957.73	-25.12
958.461	-26.14
959.192	2.56
959.923	-19.99
960.654	-19.99
961.385	0.51
962.116	-18.96
962.847	-14.86
963.578	-5.64
964.308	-15.89
965.039	-26.14
965.769	-34.34
966.5	-29.21
967.23	-8.71
967.961	-22.04
968.691	-10.76
969.421	-21.02
970.151	-36.39
970.881	-24.09
971.611	-36.39
972.341	-34.34
973.071	-32.29
973.801	-10.76
974.53	-10.76
975.26	-23.07
975.99	-28.19
976.719	-18.96
977.448	-0.51
978.178	-32.29
978.907	-18.96
979.636	-11.79
980.365	-26.14
981.095	-21.01
981.824	-37.41
982.553	-25.11
983.281	-27.17
984.01	4.62
984.739	3.59
985.468	-1.54
986.196	-3.59
986.925	-26.13
987.653	-31.27
988.382	-22.04
989.11	-28.19
989.838	-19.99
990.566	-22.04
991.295	-36.39
992.023	-16.91
992.751	-8.71
993.478	-5.64
994.206	-22.04
994.934	-19.99
995.662	-5.64
996.389	5.64
997.117	-8.72
997.845	5.64
