Data from White_Subt2_006.txt Node
Date: Fri Aug 23 09:19:36 EDT 2019
User: wcc
Spectrometer: QEPB0759
Trigger mode: 0
Integration Time (sec): 1.000000E0
Scans to average: 1
Electric dark correction enabled: true
Nonlinearity correction enabled: true
Boxcar width: 0
XAxis mode: Wavelengths
Number of Pixels in Spectrum: 1044
>>>>>Begin Spectral Data<<<<<
197.938	14.61
198.749	26.91
199.559	15.63
200.369	21.78
201.179	5.38
201.988	13.58
202.798	1.28
203.608	4.36
204.417	10.51
205.227	27.93
206.036	13.58
206.846	7.43
207.655	5.38
208.464	17.68
209.273	24.85
210.082	14.61
210.891	25.88
211.7	14.61
212.508	0.26
213.317	13.58
214.125	19.73
214.934	22.81
215.742	22.81
216.55	22.81
217.359	11.53
218.167	11.53
218.975	5.38
219.782	24.86
220.59	8.46
221.398	11.53
222.206	17.68
223.013	24.86
223.82	8.46
224.628	4.36
225.435	28.96
226.242	8.46
227.049	8.46
227.856	20.76
228.663	0.26
229.47	18.71
230.277	27.93
231.083	21.78
231.89	7.43
232.696	13.58
233.502	23.83
234.309	12.56
235.115	6.41
235.921	10.51
236.727	15.63
237.533	13.58
238.339	3.33
239.144	12.56
239.95	11.53
240.756	24.86
241.561	2.31
242.366	-0.77
243.172	17.68
243.977	25.88
244.782	12.56
245.587	28.96
246.392	19.73
247.197	25.88
248.001	26.91
248.806	13.58
249.611	19.73
250.415	21.78
251.219	25.88
252.024	19.73
252.828	21.78
253.632	32.03
254.436	28.96
255.24	13.58
256.044	27.93
256.848	12.56
257.651	8.46
258.455	-0.77
259.258	12.56
260.062	617.3
260.865	3.33
261.668	23.83
262.471	21.78
263.274	13.58
264.077	18.71
264.88	23.83
265.683	34.09
266.486	25.88
267.288	33.05
268.091	26.91
268.893	-19.22
269.696	13.58
270.498	21.78
271.3	10.51
272.102	33.05
272.904	4.36
273.706	32.03
274.508	32.03
275.309	5.38
276.111	33.06
276.913	32.04
277.714	22.81
278.515	20.76
279.317	28.96
280.118	34.09
280.919	14.61
281.72	36.13
282.521	10.51
283.322	29.98
284.122	18.71
284.923	17.68
285.724	37.16
286.524	18.71
287.325	10.51
288.125	3.33
288.925	7.43
289.725	-2.82
290.525	24.85
291.325	17.68
292.125	28.96
292.925	8.46
293.724	17.68
294.524	27.94
295.324	36.14
296.123	16.66
296.922	23.83
297.722	22.8
298.521	17.68
299.32	35.1
300.119	3.33
300.918	13.58
301.716	32.03
302.515	22.81
303.314	6.41
304.112	5.38
304.911	16.65
305.709	17.68
306.507	25.88
307.306	7.43
308.104	16.66
308.902	34.08
309.7	9.48
310.498	10.51
311.295	18.71
312.093	26.9
312.891	8.46
313.688	25.88
314.485	14.61
315.283	29.98
316.08	14.61
316.877	12.56
317.674	15.63
318.471	21.79
319.268	27.93
320.065	25.88
320.862	7.43
321.658	27.93
322.455	47.41
323.251	5.38
324.047	17.68
324.844	22.8
325.64	20.76
326.436	26.91
327.232	13.58
328.028	7.43
328.824	31.01
329.62	26.91
330.415	21.78
331.211	12.56
332.006	27.93
332.802	17.68
333.597	6.41
334.392	28.96
335.187	27.93
335.982	34.09
336.777	34.08
337.572	15.63
338.367	20.76
339.162	19.73
339.956	27.93
340.751	27.93
341.545	7.43
342.34	14.61
343.134	31.01
343.928	15.63
344.722	21.78
345.516	17.68
346.31	1.28
347.104	15.63
347.898	22.81
348.691	13.58
349.485	40.24
350.278	7.43
351.072	28.95
351.865	-348.45
352.658	31.01
353.452	11.53
354.245	17.68
355.038	24.86
355.83	26.91
356.623	24.86
357.416	20.76
358.209	24.86
359.001	24.86
359.794	26.91
360.586	24.86
361.378	5.38
362.17	21.78
362.963	36.14
363.755	20.75
364.546	27.93
365.338	27.93
366.13	38.18
366.922	18.71
367.713	28.96
368.505	29.98
369.296	26.91
370.088	39.21
370.879	27.93
371.67	24.86
372.461	43.31
373.252	51.51
374.043	45.35
374.834	61.77
375.625	67.9
376.415	67.9
377.206	90.45
377.996	99.68
378.787	131.43
379.577	143.76
380.367	179.64
381.157	215.47
381.947	267.74
382.737	317.93
383.527	350.69
384.317	436.69
385.107	493.11
385.896	553.42
386.686	625.13
387.475	736.68
388.265	841.16
389.054	967.62
389.843	1100.99
390.632	1219.55
391.421	1369.8
392.21	1519.99
392.999	1697.97
393.788	1856.12
394.576	2056.08
395.365	2251.96
396.154	2466.34
396.942	2665.23
397.73	2880.99
398.519	3108.11
399.307	3342.15
400.095	3489.59
400.883	3697.61
401.671	3947.24
402.459	4163.56
403.246	4389.3
404.034	4653.12
404.822	4916.7
405.609	5120.96
406.396	5399.42
407.184	5532.42
407.971	5641.84
408.758	5785.64
409.545	5886.51
410.332	6029.32
411.119	6168.16
411.906	6333.98
412.693	6541.21
413.479	6755.35
414.266	7093.47
415.052	7443.97
415.839	7842.94
416.625	8261.48
417.411	8746.83
418.197	9205.79
418.983	9635.54
419.769	9851.82
420.555	9820.21
421.341	9773.15
422.127	9620.02
422.912	9572.02
423.698	9507.35
424.483	9521.68
425.269	9571.29
426.054	9696.77
426.839	9869.07
427.624	10172.63
428.409	10432.44
429.194	10840.11
429.979	11236.25
430.764	11707.59
431.549	12033.77
432.333	12462.65
433.118	12818.74
433.902	13047.62
434.687	13269.57
435.471	13439.99
436.255	13655.66
437.039	13904.97
437.823	14152.22
438.607	14300.73
439.391	14189.75
440.175	14258.11
440.958	14317.86
441.742	14486.52
442.526	14623.78
443.309	14759.87
444.092	15003.67
444.876	15216.73
445.659	15364.03
446.442	15598.02
447.225	15890.07
448.008	16459.3
448.791	17735.27
449.573	19481.37
450.356	19759.46
451.139	19165.55
451.921	19556.07
452.704	19412.23
453.486	19121.38
454.268	19470.2
455.05	20067.44
455.833	20769.78
456.615	21553.12
457.396	22295.7
458.178	22817.92
458.96	22866.15
459.742	22978.86
460.523	23436.45
461.305	24196.22
462.086	25082.85
462.868	25517.1
463.649	25443.2
464.43	25176.59
465.211	25535.69
465.992	26728.48
466.773	29003.69
467.554	30848.87
468.335	31076.1
469.115	30217.27
469.896	29437.56
470.676	28654.04
471.457	28765.34
472.237	30792.75
473.018	32791.1
473.798	31244.2
474.578	28870.26
475.358	28062.46
476.138	27894.87
476.918	27972.99
477.697	28333.27
478.477	28955.08
479.257	29950.21
480.036	31638.29
480.816	33228.72
481.595	33928.31
482.374	33953.44
483.153	33935.82
483.932	33728.36
484.711	33156.37
485.49	32947.58
486.269	33006.39
487.048	33359.88
487.827	33974.68
488.605	34609.27
489.384	35384.29
490.162	36728.25
490.941	39125.28
491.719	41387.13
492.497	41815.96
493.275	41356.77
494.053	40508.84
494.831	39971.6
495.609	39692.17
496.387	39624.42
497.164	39626.81
497.942	39787.96
498.72	39963.35
499.497	40238.81
500.274	40505.57
501.052	40813.84
501.829	41159.12
502.606	41506.56
503.383	41837.87
504.16	42064.33
504.937	42065.95
505.714	42316.96
506.49	42623.54
507.267	42773.32
508.043	43096.32
508.82	43372.78
509.596	43775.23
510.373	44142.45
511.149	44660.33
511.925	45156.59
512.701	45786.72
513.477	46022.65
514.253	46466.23
515.029	46783.43
515.804	47270.27
516.58	47678.91
517.356	48095.99
518.131	48643.73
518.906	49075.02
519.682	49418.85
520.457	49904.78
521.232	50142.97
522.007	50581.34
522.782	50986.96
523.557	51157.79
524.332	51361.36
525.107	51674.31
525.881	51806.82
526.656	51983.15
527.43	52076.51
528.205	52309.68
528.979	52356.67
529.753	52180.81
530.527	52078.53
531.302	52021
532.076	51822.21
532.849	51754.11
533.623	51541.38
534.397	51343.25
535.171	51018.57
535.944	50860.57
536.718	50619.38
537.491	50436.78
538.265	50204.31
539.038	50083.54
539.811	50202.68
540.584	50176.72
541.357	50231.1
542.13	50065.09
542.903	49935.98
543.676	49853.54
544.449	49893.83
545.221	49777.54
545.994	49736.22
546.766	49669.43
547.539	49650.85
548.311	49662
549.083	49693.79
549.855	49765.14
550.627	49863.33
551.399	50107.11
552.171	50382.23
552.943	50601.19
553.715	50905.07
554.486	51087.24
555.258	51320.99
556.029	51756.36
556.801	52020.49
557.572	52493.24
558.343	52765.21
559.114	53089.15
559.886	53497.7
560.657	53879.49
561.427	54261.62
562.198	54619.08
562.969	54829.39
563.74	54890.63
564.51	55248.31
565.281	55357.99
566.051	55654.57
566.822	55758.73
567.592	55788.34
568.362	55720.92
569.132	55628.91
569.902	55509.98
570.672	55204.63
571.442	55042.12
572.212	54630.86
572.982	54399.34
573.751	54151.13
574.521	53853.07
575.29	53742.34
576.06	53319.21
576.829	53063.39
577.598	52838.87
578.367	52518.35
579.136	52314.05
579.905	52124.25
580.674	52111.69
581.443	51958
582.212	51735.39
582.981	51805.34
583.749	51724.64
584.518	51739.32
585.286	51756.58
586.054	51815.63
586.823	51681.39
587.591	51557.98
588.359	51727.37
589.127	51673.25
589.895	51653.56
590.663	51540.33
591.431	51475.13
592.198	51529.63
592.966	51472.09
593.734	51231.18
594.501	51070.89
595.268	50963.96
596.036	50628.63
596.803	50443.64
597.57	50135.76
598.337	49718.34
599.104	49443.87
599.871	49162.13
600.638	48780.18
601.405	48505.76
602.171	48276.74
602.938	47926.88
603.704	47656.87
604.471	47452.02
605.237	47145.25
606.004	46873.6
606.77	46768.06
607.536	46572.42
608.302	46485.3
609.068	46314.98
609.834	46216.85
610.599	46242.39
611.365	46219.27
612.131	46363.64
612.896	46298.11
613.662	46237.87
614.427	46170.57
615.193	46084.43
615.958	46038.17
616.723	45939.38
617.488	45686.32
618.253	45646.5
619.018	45476.42
619.783	45198.57
620.548	45019.25
621.312	44883.71
622.077	44668.6
622.842	44522.03
623.606	44268.73
624.37	43962.76
625.135	43657.33
625.899	43440.91
626.663	43047.43
627.427	42708.67
628.191	42430.78
628.955	42101.24
629.719	41760.61
630.483	41501.84
631.246	41075.52
632.01	40684.53
632.773	40211.75
633.537	39780.71
634.3	39396.89
635.063	38828.65
635.827	38345.29
636.59	37921.41
637.353	37445.66
638.116	37044.38
638.879	36594.19
639.641	36123.07
640.404	35775.58
641.167	35351.22
641.929	34948.25
642.692	34558.41
643.454	34159.4
644.216	33865.97
644.979	33608.63
645.741	33241.95
646.503	33015.02
647.265	32737.61
648.027	32594.67
648.789	32311.87
649.551	31969.02
650.312	31400.24
651.074	30834.57
651.835	30269.98
652.597	29855.86
653.358	29529.52
654.12	29170.23
654.881	28911.16
655.642	28620.16
656.403	28450.05
657.164	28255.86
657.925	28180.33
658.686	28010.11
659.447	27917.73
660.207	27871.43
660.968	27846.63
661.728	27809.14
662.489	27878.95
663.249	27952.12
664.01	28008.34
664.77	28056.11
665.53	28205.06
666.29	28184.27
667.05	28272.69
667.81	28348.58
668.57	28419.7
669.329	28447.82
670.089	28515.22
670.849	28581.89
671.608	28696.13
672.368	28597.82
673.127	28519.39
673.886	28485.97
674.646	28436.56
675.405	28339.05
676.164	28358.82
676.923	28129.53
677.682	27911.44
678.44	27781.73
679.199	27637.15
679.958	27541.12
680.717	27703.49
681.475	28092.5
682.233	28739.15
682.992	28804.4
683.75	28099.13
684.508	27414.03
685.266	26758.3
686.024	26234.76
686.782	25851.85
687.54	25550.37
688.298	25159.86
689.056	24681.05
689.814	24191.69
690.571	23730.34
691.329	23180.51
692.086	22576.27
692.843	22173.75
693.601	21745.97
694.358	21292.17
695.115	20809.1
695.872	20422.85
696.629	20041.59
697.386	19710.17
698.143	19390.62
698.9	19193.01
699.656	18983
700.413	18787.01
701.169	18554.68
701.926	18416.91
702.682	18287.12
703.438	18070.6
704.195	17908.25
704.951	17772.27
705.707	17632.35
706.463	17599.65
707.219	17475.13
707.974	17441.17
708.73	17432.16
709.486	17363.4
710.241	17291.13
710.997	17226.85
711.752	17110.14
712.508	16847.23
713.263	16417.66
714.018	16038.4
714.773	15564.88
715.528	15119.7
716.283	14615.62
717.038	14135.41
717.793	13692.22
718.548	13154.6
719.303	12632.06
720.057	12098.56
720.812	11596.15
721.566	11169.41
722.321	10808.65
723.075	10524.97
723.829	10153.13
724.583	9905.21
725.337	9784.31
726.091	9544.79
726.845	9413.63
727.599	9324.56
728.353	9196.52
729.106	8985.22
729.86	8859.31
730.614	8870.24
731.367	8656.49
732.12	8985.53
732.874	8804.83
733.627	8382.91
734.38	7977.65
735.133	7542.28
735.886	7204.61
736.639	6947.89
737.392	6791.13
738.145	6692.91
738.897	6619.78
739.65	6509.36
740.403	6343.2
741.155	6133.67
741.907	5853.61
742.66	5423.51
743.412	4883.86
744.164	4218.33
744.916	3472.06
745.668	2583.44
746.42	1734.26
747.172	1039.6
747.924	546.31
748.676	279.03
749.427	198.06
750.179	163.2
750.93	137.59
751.682	132.49
752.433	106.84
753.184	103.76
753.935	105.83
754.687	103.79
755.438	107.87
756.189	87.38
756.939	83.28
757.69	91.49
758.441	96.6
759.192	83.28
759.942	99.67
760.693	76.1
761.443	83.27
762.194	88.41
762.944	87.39
763.694	84.3
764.444	103.78
765.194	81.23
765.944	70.98
766.694	60.73
767.444	82.24
768.194	67.9
768.943	75.09
769.693	51.5
770.443	61.75
771.192	40.23
771.941	54.59
772.691	42.28
773.44	53.56
774.189	56.63
774.938	37.16
775.687	42.28
776.436	19.73
777.185	53.55
777.934	52.53
778.683	51.51
779.431	46.38
780.18	46.38
780.928	63.81
781.677	33.06
782.425	52.53
783.173	36.13
783.922	56.63
784.67	62.77
785.418	32.03
786.166	51.5
786.914	52.54
787.661	50.48
788.409	41.26
789.157	44.33
789.904	40.23
790.652	61.75
791.399	34.08
792.147	40.23
792.894	56.63
793.641	55.61
794.388	271.79
795.136	47.4
795.883	64.84
796.629	41.25
797.376	22.81
798.123	53.56
798.87	46.39
799.616	15.63
800.363	36.13
801.109	16.65
801.856	37.15
802.602	36.14
803.349	38.18
804.095	31
804.841	22.81
805.587	26.91
806.333	18.71
807.079	41.25
807.825	36.13
808.57	4.36
809.316	22.8
810.062	23.83
810.807	19.73
811.553	28.95
812.298	16.65
813.043	25.88
813.788	24.85
814.534	21.78
815.279	31
816.024	10.51
816.769	15.63
817.514	24.86
818.258	11.53
819.003	29.98
819.748	140.67
820.492	22.81
821.237	-53.72
821.981	24.86
822.726	19.73
823.47	7.43
824.214	24.85
824.958	7.43
825.702	-2.82
826.446	13.58
827.19	26.9
827.934	5.38
828.678	39.2
829.421	20.75
830.165	14.61
830.909	26.91
831.652	15.63
832.395	9.48
833.139	39.2
833.882	11.53
834.625	14.61
835.368	7.43
836.111	24.86
836.854	-8.97
837.597	21.78
838.34	8.46
839.083	21.78
839.825	11.53
840.568	26.91
841.311	4.36
842.053	12.56
842.795	15.63
843.538	14.61
844.28	5.38
845.022	20.76
845.764	5.38
846.506	11.53
847.248	1.28
847.99	10.51
848.732	12.56
849.474	1.28
850.215	9.48
850.957	-0.77
851.698	18.71
852.44	6.41
853.181	13.58
853.922	15.63
854.664	26.91
855.405	6.41
856.146	10.51
856.887	11.53
857.628	5.38
858.369	11.53
859.109	3.33
859.85	7.43
860.591	9.48
861.331	11.53
862.072	19.73
862.812	11.53
863.553	13.58
864.293	-7.94
865.033	12.56
865.773	22.81
866.513	19.73
867.253	6.41
867.993	18.71
868.733	8.46
869.473	-0.77
870.213	2.31
870.952	1.28
871.692	5.38
872.431	16.66
873.171	15.63
873.91	13.58
874.649	4.36
875.388	23.83
876.128	4.36
876.867	-5.89
877.606	1.28
878.345	13.58
879.083	4.36
879.822	1.28
880.561	-3.84
881.299	1.28
882.038	0.26
882.777	36.13
883.515	-17.17
884.253	202.83
884.992	5.38
885.73	1.28
886.468	12.56
887.206	-0.77
887.944	3.33
888.682	6.41
889.42	6.41
890.157	-1.79
890.895	8.46
891.633	-21.25
892.37	-14.09
893.108	-9.99
893.845	-0.77
894.583	-14.09
895.32	5.38
896.057	5.38
896.794	10.51
897.531	-15.12
898.268	-2.82
899.005	-11.02
899.742	-4.87
900.479	-17.17
901.215	4.36
901.952	6.41
902.689	-12.05
903.425	-5.9
904.162	2.31
904.898	-5.89
905.634	-0.77
906.37	-1.79
907.106	15.63
907.843	1.28
908.579	4.36
909.314	-1.79
910.05	-0.77
910.786	-3.84
911.522	-13.07
912.257	-35.62
912.993	-3.84
913.728	2.31
914.464	-22.3
915.199	-0.77
915.935	-12.05
916.67	-14.1
917.405	-25.37
918.14	-8.97
918.875	8.46
919.61	10.51
920.345	-15.12
921.08	-16.14
921.814	-4.87
922.549	1.28
923.284	-21.27
924.018	2.31
924.752	-12.04
925.487	-7.94
926.221	-0.77
926.955	-14.09
927.69	-6.92
928.424	-19.22
929.158	-1.79
929.892	-2.82
930.625	2.31
931.359	7.43
932.093	2.31
932.827	-1.79
933.56	-6.92
934.294	-13.07
935.027	12.56
935.761	1.28
936.494	3.33
937.227	-17.17
937.96	-6.92
938.693	-8.97
939.426	-4.87
940.159	-25.37
940.892	-9.99
941.625	0.26
942.358	-9.99
943.091	-22.3
943.823	-19.22
944.556	-7.95
945.288	4.36
946.021	1.28
946.753	-1.79
947.485	-8.97
948.217	11.53
948.95	-32.55
949.682	-18.2
950.414	-2.82
951.146	-16.14
951.877	-3.84
952.609	20.76
953.341	-8.97
954.073	-22.29
954.804	-4.87
955.536	2.31
956.267	-14.09
956.998	1.28
957.73	-23.32
958.461	-16.15
959.192	11.53
959.923	-16.14
960.654	-0.77
961.385	13.58
962.116	-8.97
962.847	3.33
963.578	-12.04
964.308	-7.94
965.039	-15.12
965.769	-5.89
966.5	-5.89
967.23	-11.02
967.961	-3.84
968.691	-6.92
969.421	-2.82
970.151	-21.27
970.881	-25.37
971.611	-24.34
972.341	-7.94
973.071	-16.14
973.801	1.28
974.53	0.26
975.26	-8.97
975.99	-24.35
976.719	-13.07
977.448	-8.97
978.178	-15.12
978.907	5.38
979.636	-2.82
980.365	-4.87
981.095	-1.79
981.824	-14.09
982.553	-13.07
983.281	-21.27
984.01	7.44
984.739	-1.8
985.468	-7.95
986.196	6.41
986.925	13.58
987.653	12.56
988.382	13.58
989.11	4.36
989.838	23.83
990.566	21.78
991.295	-18.2
992.023	-19.22
992.751	-9.99
993.478	-4.87
994.206	-14.09
994.934	-12.04
995.662	-6.93
996.389	4.36
997.117	-15.13
997.845	13.59
