Data from White_Bg_Subt2_006.txt Node
Date: Fri Aug 23 09:20:48 EDT 2019
User: wcc
Spectrometer: QEPB0759
Trigger mode: 0
Integration Time (sec): 1.000000E0
Scans to average: 1
Electric dark correction enabled: true
Nonlinearity correction enabled: true
Boxcar width: 0
XAxis mode: Wavelengths
Number of Pixels in Spectrum: 1044
>>>>>Begin Spectral Data<<<<<
197.938	-17.04
198.749	-29.34
199.559	-28.32
200.369	-8.84
201.179	-9.87
201.988	-21.14
202.798	-21.14
203.608	-44.72
204.417	-29.34
205.227	2.43
206.036	-22.17
206.846	-19.09
207.655	-28.31
208.464	-23.19
209.273	-14.99
210.082	-31.39
210.891	-12.94
211.7	-1.67
212.508	-20.12
213.317	-13.97
214.125	-21.14
214.934	-9.87
215.742	-18.07
216.55	-4.74
217.359	-11.92
218.167	-10.89
218.975	-28.32
219.782	-19.09
220.59	-17.04
221.398	-25.25
222.206	-18.06
223.013	-8.84
223.82	-18.07
224.628	-16.02
225.435	-24.22
226.242	-18.07
227.049	-34.47
227.856	-21.14
228.663	-20.12
229.47	-6.79
230.277	-19.09
231.083	-17.04
231.89	-27.29
232.696	-28.32
233.502	-20.12
234.309	-29.34
235.115	-31.39
235.921	-20.12
236.727	-20.12
237.533	-19.09
238.339	-43.69
239.144	-11.92
239.95	-9.86
240.756	-11.92
241.561	-27.29
242.366	-32.42
243.172	-19.09
243.977	-3.72
244.782	-28.32
245.587	-12.94
246.392	-22.17
247.197	-26.27
248.001	-25.25
248.806	-18.07
249.611	-12.94
250.415	-18.07
251.219	-22.17
252.024	-14.99
252.828	-17.04
253.632	-21.14
254.436	-9.87
255.24	-36.52
256.044	-9.87
256.848	-14.99
257.651	-24.22
258.455	-27.29
259.258	-32.42
260.062	53.19
260.865	-30.37
261.668	-18.07
262.471	-28.32
263.274	-30.37
264.077	-11.92
264.88	-35.49
265.683	-2.69
266.486	-12.94
267.288	-17.04
268.091	-1.67
268.893	-61.12
269.696	-14.99
270.498	-25.24
271.3	-32.42
272.102	-29.34
272.904	-29.34
273.706	-2.69
274.508	-21.14
275.309	-27.29
276.111	2.43
276.913	-7.82
277.714	-22.17
278.515	-28.32
279.317	-7.82
280.118	-3.72
280.919	-19.09
281.72	-30.37
282.521	-38.57
283.322	-10.89
284.122	-20.12
284.923	-12.94
285.724	-10.89
286.524	-29.34
287.325	-32.41
288.125	-33.45
288.925	-27.29
289.725	-46.77
290.525	-24.21
291.325	-23.19
292.125	-19.09
292.925	-19.09
293.724	-21.14
294.524	-27.3
295.324	-16.02
296.123	-38.57
296.922	-25.24
297.722	5.51
298.521	-30.37
299.32	-16.01
300.119	-24.22
300.918	-29.34
301.716	-25.24
302.515	-33.44
303.314	-26.27
304.112	-25.24
304.911	-27.29
305.709	-7.82
306.507	-16.02
307.306	-28.32
308.104	-20.12
308.902	-20.12
309.7	-22.17
310.498	-35.49
311.295	-25.25
312.093	-30.37
312.891	-25.24
313.688	-18.07
314.485	-7.82
315.283	-13.96
316.08	-9.87
316.877	-40.62
317.674	-27.29
318.471	-30.37
319.268	-22.17
320.065	-23.19
320.862	-27.29
321.658	-17.04
322.455	-0.64
323.251	-26.27
324.047	-29.35
324.844	-23.19
325.64	-23.19
326.436	-10.89
327.232	-19.09
328.028	-16.02
328.824	-12.94
329.62	-22.17
330.415	-21.14
331.211	-20.12
332.006	-16.02
332.802	-27.29
333.597	-25.24
334.392	-8.84
335.187	-19.09
335.982	-14.99
336.777	-9.87
337.572	-41.65
338.367	-22.17
339.162	-26.27
339.956	-5.77
340.751	-17.04
341.545	-23.19
342.34	-25.24
343.134	-3.72
343.928	-28.32
344.722	-7.82
345.516	-13.97
346.31	-32.42
347.104	-21.14
347.898	-17.04
348.691	-17.04
349.485	-16.02
350.278	-25.24
351.072	-14.99
351.865	-479.16
352.658	-16.02
353.452	-16.01
354.245	-24.22
355.038	-28.32
355.83	-28.32
356.623	-27.29
357.416	-19.09
358.209	-27.29
359.001	-18.07
359.794	-10.89
360.586	-24.22
361.378	-19.09
362.17	-33.44
362.963	-28.32
363.755	-21.14
364.546	-18.07
365.338	-17.04
366.13	-22.17
366.922	-28.32
367.713	-20.12
368.505	-27.29
369.296	-27.29
370.088	-11.92
370.879	-33.45
371.67	-39.59
372.461	-6.79
373.252	-24.22
374.043	-24.21
374.834	-14.99
375.625	-16.02
376.415	-22.16
377.206	-31.39
377.996	-28.32
378.787	-27.29
379.577	-33.45
380.367	-18.07
381.157	-19.09
381.947	-10.89
382.737	-21.14
383.527	-32.42
384.317	-9.87
385.107	-16.02
385.896	-31.39
386.686	-23.19
387.475	-20.12
388.265	-17.04
389.054	-18.06
389.843	-28.32
390.632	-17.04
391.421	-19.09
392.21	-19.09
392.999	-10.89
393.788	-8.84
394.576	-8.84
395.365	-30.37
396.154	-12.94
396.942	-12.94
397.73	-40.62
398.519	-12.94
399.307	-19.09
400.095	-34.47
400.883	-18.06
401.671	-17.04
402.459	-24.22
403.246	-35.5
404.034	-24.22
404.822	-32.42
405.609	-18.07
406.396	-10.89
407.184	-23.19
407.971	-16.02
408.758	-6.79
409.545	-8.84
410.332	-24.22
411.119	-4.74
411.906	-28.32
412.693	-22.17
413.479	-25.24
414.266	-27.29
415.052	-21.14
415.839	-9.87
416.625	-25.24
417.411	-12.94
418.197	-8.84
418.983	-21.14
419.769	-10.89
420.555	-27.29
421.341	-10.89
422.127	-18.07
422.912	-35.49
423.698	-23.19
424.483	-41.64
425.269	-33.44
426.054	-16.02
426.839	-22.17
427.624	-11.92
428.409	-17.04
429.194	-12.94
429.979	-13.97
430.764	-13.97
431.549	-27.29
432.333	-23.19
433.118	-25.25
433.902	-41.64
434.687	-52.92
435.471	-59.07
436.255	-44.72
437.039	-19.09
437.823	-25.24
438.607	-1.67
439.391	-45.74
440.175	-28.32
440.958	-23.19
441.742	-20.12
442.526	-21.14
443.309	-30.37
444.092	-22.16
444.876	-18.07
445.659	-22.17
446.442	-38.56
447.225	-17.04
448.008	-37.54
448.791	-31.39
449.573	10.63
450.356	-16.01
451.139	-16.01
451.921	-29.34
452.704	-0.64
453.486	-44.72
454.268	-32.41
455.05	-12.94
455.833	-23.19
456.615	-16.02
457.396	-21.14
458.178	-16.02
458.96	-25.24
459.742	-23.19
460.523	-26.27
461.305	-22.17
462.086	-8.84
462.868	-26.26
463.649	-5.77
464.43	-19.09
465.211	-25.24
465.992	-1.67
466.773	-13.96
467.554	-11.92
468.335	-8.84
469.115	-20.12
469.896	-14.99
470.676	-31.4
471.457	-21.14
472.237	-18.07
473.018	-28.32
473.798	-5.77
474.578	-12.94
475.358	-18.07
476.138	-24.22
476.918	-22.17
477.697	-3.72
478.477	-19.09
479.257	-17.04
480.036	-18.07
480.816	-23.19
481.595	-32.42
482.374	-37.54
483.153	-19.09
483.932	-21.14
484.711	-38.57
485.49	-44.72
486.269	-30.37
487.048	-66.25
487.827	-53.94
488.605	-38.57
489.384	-37.54
490.162	-34.47
490.941	-36.51
491.719	-25.24
492.497	-41.64
493.275	-35.49
494.053	-5.77
494.831	-16.02
495.609	-23.19
496.387	-14.99
497.164	-33.44
497.942	-19.09
498.72	-19.09
499.497	-21.14
500.274	-4.74
501.052	-11.92
501.829	-11.92
502.606	-23.19
503.383	-25.24
504.16	2.43
504.937	-19.09
505.714	-10.89
506.49	13.71
507.267	-14.99
508.043	-14.99
508.82	-19.09
509.596	4.49
510.373	-20.12
511.149	-19.09
511.925	-32.42
512.701	1.41
513.477	-9.86
514.253	-6.79
515.029	-21.14
515.804	-28.32
516.58	-4.74
517.356	-11.92
518.131	-2.69
518.906	9.61
519.682	-5.77
520.457	-12.94
521.232	-4.74
522.007	-4.74
522.782	-7.82
523.557	6.54
524.332	-27.29
525.107	5.51
525.881	-4.74
526.656	-10.89
527.43	-5.77
528.205	-19.09
528.979	-14.99
529.753	1.41
530.527	-19.09
531.302	-8.84
532.076	-23.19
532.849	-0.64
533.623	-29.34
534.397	-0.64
535.171	-5.77
535.944	-10.89
536.718	-39.6
537.491	-11.91
538.265	-27.3
539.038	-24.22
539.811	-29.34
540.584	-25.24
541.357	-48.82
542.13	-69.31
542.903	-49.83
543.676	-62.14
544.449	-42.67
545.221	-49.84
545.994	-22.17
546.766	-22.17
547.539	-22.17
548.311	-53.94
549.083	-21.14
549.855	-18.07
550.627	-29.34
551.399	-20.12
552.171	-29.34
552.943	-17.04
553.715	0.38
554.486	-10.89
555.258	4.48
556.029	-9.87
556.801	19.86
557.572	-8.84
558.343	15.76
559.114	-6.79
559.886	-2.69
560.657	8.59
561.427	-3.72
562.198	-14.99
562.969	8.58
563.74	9.61
564.51	0.38
565.281	-18.06
566.051	7.56
566.822	16.79
567.592	-3.72
568.362	1.41
569.132	-5.77
569.902	14.73
570.672	1.41
571.442	-13.97
572.212	-6.79
572.982	1.41
573.751	-6.79
574.521	7.56
575.29	2.43
576.06	0.38
576.829	-5.77
577.598	-8.84
578.367	-36.52
579.136	-6.79
579.905	-12.94
580.674	-27.29
581.443	-26.26
582.212	-13.97
582.981	-21.14
583.749	-16.02
584.518	-25.24
585.286	-12.94
586.054	-26.26
586.823	-8.84
587.591	-22.17
588.359	-27.29
589.127	-16.02
589.895	-11.91
590.663	-33.44
591.431	-22.16
592.198	-16.01
592.966	-12.94
593.734	-27.29
594.501	-6.79
595.268	9.61
596.036	-29.34
596.803	-3.72
597.57	-9.87
598.337	-9.87
599.104	-30.37
599.871	1.41
600.638	-10.89
601.405	-14.99
602.171	-5.77
602.938	-24.21
603.704	-4.74
604.471	-24.22
605.237	-6.79
606.004	-20.12
606.77	-25.24
607.536	-36.51
608.302	-29.34
609.068	-42.66
609.834	-64.19
610.599	-111.33
611.365	-73.42
612.131	-68.29
612.896	-31.39
613.662	-54.96
614.427	-33.44
615.193	-43.69
615.958	-40.62
616.723	-24.21
617.488	-4.74
618.253	-10.89
619.018	-21.14
619.783	-31.39
620.548	-27.29
621.312	-28.32
622.077	-13.97
622.842	-21.14
623.606	-35.48
624.37	-28.32
625.135	-19.09
625.899	-14.99
626.663	-27.29
627.427	-18.07
628.191	-16.02
628.955	-36.51
629.719	-26.27
630.483	-44.72
631.246	-26.27
632.01	-17.04
632.773	-17.04
633.537	-4.74
634.3	0.38
635.063	3.46
635.827	-4.74
636.59	-21.14
637.353	-18.07
638.116	-3.72
638.879	-16.02
639.641	-1.67
640.404	-13.97
641.167	-9.87
641.929	-11.92
642.692	-8.84
643.454	-19.09
644.216	6.53
644.979	-22.17
645.741	-11.92
646.503	-4.74
647.265	-4.74
648.027	-16.01
648.789	-12.94
649.551	-10.89
650.312	-18.07
651.074	10.64
651.835	-4.74
652.597	-14.99
653.358	-22.17
654.12	10.63
654.881	-6.79
655.642	-7.82
656.403	-14.99
657.164	-16.02
657.925	2.43
658.686	-13.97
659.447	-25.24
660.207	4.48
660.968	-1.67
661.728	-16.01
662.489	-25.24
663.249	0.38
664.01	-8.84
664.77	-1.67
665.53	13.71
666.29	0.38
667.05	-4.74
667.81	-1.67
668.57	0.38
669.329	-9.87
670.089	-16.02
670.849	-0.64
671.608	-3.72
672.368	4.49
673.127	1.41
673.886	11.66
674.646	-10.89
675.405	6.53
676.164	-2.69
676.923	5.51
677.682	-6.79
678.44	-3.72
679.199	7.56
679.958	-37.53
680.717	-6.79
681.475	-7.82
682.233	6.53
682.992	-9.87
683.75	-13.97
684.508	-8.84
685.266	-1.67
686.024	-2.69
686.782	-5.77
687.54	10.63
688.298	-12.94
689.056	-1.67
689.814	-22.17
690.571	-9.87
691.329	-1.67
692.086	-6.79
692.843	1.41
693.601	-2.69
694.358	-1.67
695.115	-0.64
695.872	11.66
696.629	-3.72
697.386	-3.72
698.143	1.41
698.9	-17.04
699.656	-4.74
700.413	-10.89
701.169	-8.84
701.926	2.43
702.682	8.58
703.438	0.38
704.195	-4.74
704.951	-9.87
705.707	-21.14
706.463	-11.92
707.219	-23.19
707.974	-39.6
708.73	-26.27
709.486	-19.09
710.241	-11.92
710.997	-5.77
711.752	-28.32
712.508	-16.02
713.263	1.41
714.018	2.43
714.773	-8.84
715.528	-6.79
716.283	-1.67
717.038	-10.89
717.793	-17.04
718.548	-18.07
719.303	8.58
720.057	-8.84
720.812	-23.19
721.566	-12.94
722.321	-25.24
723.075	-10.89
723.829	-37.54
724.583	-8.84
725.337	-18.07
726.091	-22.17
726.845	-13.97
727.599	-17.04
728.353	-24.22
729.106	-20.12
729.86	-17.04
730.614	-25.24
731.367	-263.97
732.12	-22.17
732.874	-8.84
733.627	-8.84
734.38	-8.84
735.133	-18.07
735.886	-10.89
736.639	-19.09
737.392	-21.14
738.145	-11.92
738.897	-12.94
739.65	-6.79
740.403	-14.99
741.155	-18.07
741.907	-22.17
742.66	-33.44
743.412	-20.12
744.164	-12.94
744.916	2.43
745.668	-40.62
746.42	-26.26
747.172	-10.89
747.924	-16.02
748.676	-13.97
749.427	-8.84
750.179	-26.27
750.93	-5.77
751.682	-5.77
752.433	-26.27
753.184	-24.21
753.935	-13.97
754.687	-25.24
755.438	-18.07
756.189	-16.02
756.939	-22.17
757.69	-12.94
758.441	0.38
759.192	-8.84
759.942	-9.87
760.693	-23.19
761.443	-22.17
762.194	-21.14
762.944	-10.89
763.694	-28.32
764.444	0.38
765.194	-19.09
765.944	-28.32
766.694	-35.49
767.444	-19.09
768.194	-9.87
768.943	-19.09
769.693	-32.42
770.443	-38.57
771.192	-45.74
771.941	-8.84
772.691	-25.24
773.44	-8.84
774.189	-16.02
774.938	-37.54
775.687	-23.19
776.436	-43.69
777.185	-29.34
777.934	-18.07
778.683	-20.12
779.431	-25.24
780.18	-22.17
780.928	-19.09
781.677	-13.97
782.425	-21.14
783.173	-25.24
783.922	-31.39
784.67	-9.86
785.418	-39.59
786.166	-18.07
786.914	-12.94
787.661	-14.99
788.409	-22.17
789.157	-24.22
789.904	-26.27
790.652	-23.19
791.399	-22.17
792.147	-18.07
792.894	-11.92
793.641	-23.19
794.388	-92.2
795.136	4.48
795.883	2.43
796.629	-23.19
797.376	-36.52
798.123	-6.79
798.87	-10.89
799.616	-31.39
800.363	-14.99
801.109	-16.01
801.856	-16.02
802.602	-14.99
803.349	-1.67
804.095	-18.06
804.841	-25.24
805.587	-22.17
806.333	-32.42
807.079	-20.12
807.825	-5.77
808.57	-36.52
809.316	-4.74
810.062	-43.69
810.807	-23.19
811.553	-14.99
812.298	-14.99
813.043	-22.17
813.788	-28.31
814.534	-4.74
815.279	-23.19
816.024	-12.94
816.769	-16.02
817.514	-21.14
818.258	-19.09
819.003	-11.91
819.748	-234.38
820.492	-14.99
821.237	-114.7
821.981	0.38
822.726	-38.56
823.47	-26.26
824.214	-33.44
824.958	-35.49
825.702	-37.54
826.446	-20.11
827.19	-22.17
827.934	-24.21
828.678	-17.04
829.421	-20.11
830.165	-33.44
830.909	-10.89
831.652	-31.39
832.395	-23.19
833.139	-8.84
833.882	-36.51
834.625	-20.12
835.368	-24.22
836.111	-11.92
836.854	-34.47
837.597	-13.97
838.34	-22.17
839.083	0.38
839.825	-28.31
840.568	-14.99
841.311	-24.22
842.053	-6.79
842.795	-17.04
843.538	-13.97
844.28	-30.37
845.022	-22.17
845.764	-29.34
846.506	-22.17
847.248	-46.77
847.99	-28.32
848.732	-18.07
849.474	-31.39
850.215	-25.25
850.957	-27.3
851.698	-20.12
852.44	-18.07
853.181	-13.97
853.922	-21.14
854.664	-13.97
855.405	-33.44
856.146	-5.77
856.887	-16.02
857.628	-28.31
858.369	-14.99
859.109	-27.29
859.85	-16.02
860.591	-8.84
861.331	-27.29
862.072	-11.92
862.812	-21.15
863.553	-3.72
864.293	-28.31
865.033	-31.39
865.773	-10.89
866.513	-11.92
867.253	-4.74
867.993	-20.12
868.733	-31.39
869.473	-31.39
870.213	-34.46
870.952	-29.35
871.692	-28.32
872.431	-19.09
873.171	-7.82
873.91	-8.84
874.649	-9.87
875.388	-22.17
876.128	-28.32
876.867	-26.27
877.606	-29.34
878.345	-20.12
879.083	-19.09
879.822	-19.09
880.561	-22.17
881.299	-23.19
882.038	-12.94
882.777	8.58
883.515	-27.29
884.253	-42.17
884.992	-17.04
885.73	-21.14
886.468	-16.02
887.206	1.41
887.944	-26.27
888.682	-27.29
889.42	-24.22
890.157	-7.82
890.895	-18.07
891.633	-43.65
892.37	-25.24
893.108	-36.52
893.845	-22.17
894.583	-31.39
895.32	-5.77
896.057	-27.3
896.794	-32.42
897.531	-34.47
898.268	-19.09
899.005	-21.14
899.742	-18.07
900.479	-32.42
901.215	-26.27
901.952	-18.07
902.689	-29.35
903.425	-14.99
904.162	-20.12
904.898	-16.02
905.634	-11.92
906.37	-26.27
907.106	-8.84
907.843	-22.17
908.579	-16.02
909.314	-18.07
910.05	-14.99
910.786	-28.32
911.522	-33.45
912.257	-38.57
912.993	2.43
913.728	-9.87
914.464	-34.47
915.199	-37.55
915.935	-18.07
916.67	-34.47
917.405	-44.72
918.14	-26.27
918.875	-6.79
919.61	-11.92
920.345	-22.16
921.08	-54.96
921.814	-18.07
922.549	-17.04
923.284	-39.59
924.018	-21.14
924.752	-29.34
925.487	-12.94
926.221	-18.07
926.955	-14.99
927.69	-17.04
928.424	-29.34
929.158	-14.99
929.892	-27.29
930.625	-7.82
931.359	-16.01
932.093	-20.12
932.827	-24.22
933.56	-22.17
934.294	-17.04
935.027	-2.69
935.761	-23.19
936.494	-18.07
937.227	-28.32
937.96	-26.27
938.693	-24.22
939.426	-31.4
940.159	-35.49
940.892	-20.12
941.625	-10.89
942.358	-20.12
943.091	-40.62
943.823	-44.72
944.556	-22.17
945.288	-17.04
946.021	-26.27
946.753	-13.97
947.485	-9.87
948.217	6.53
948.95	-31.39
949.682	-12.94
950.414	-22.17
951.146	-22.17
951.877	-23.19
952.609	9.61
953.341	-16.02
954.073	-31.39
954.804	-14.99
955.536	-14.99
956.267	-36.52
956.998	-0.64
957.73	-23.19
958.461	-22.17
959.192	-5.77
959.923	-22.16
960.654	3.46
961.385	-5.77
962.116	-22.17
962.847	-18.07
963.578	-26.27
964.308	-35.49
965.039	-26.27
965.769	-22.17
966.5	-22.17
967.23	-10.89
967.961	-16.02
968.691	-13.97
969.421	-19.09
970.151	-38.57
970.881	-34.47
971.611	-34.47
972.341	-8.84
973.071	-25.24
973.801	-19.09
974.53	-21.14
975.26	-21.14
975.99	-37.54
976.719	-22.17
977.448	-10.89
978.178	-32.42
978.907	-22.17
979.636	-16.02
980.365	-24.22
981.095	-21.14
981.824	-25.24
982.553	-12.94
983.281	-22.17
984.01	1.41
984.739	4.49
985.468	-3.72
986.196	-3.72
986.925	-12.94
987.653	-13.97
988.382	-23.19
989.11	-24.22
989.838	-2.69
990.566	-17.04
991.295	-19.09
992.023	-27.29
992.751	-13.96
993.478	-22.17
994.206	-18.07
994.934	-24.22
995.662	-0.64
996.389	-1.67
997.117	-8.85
997.845	12.7
