Data from White_Bg_Subt2_007.txt Node
Date: Tue Aug 27 12:42:54 EDT 2019
User: wcc
Spectrometer: QEPB0759
Trigger mode: 0
Integration Time (sec): 1.000000E0
Scans to average: 1
Electric dark correction enabled: true
Nonlinearity correction enabled: false
Boxcar width: 0
XAxis mode: Wavelengths
Number of Pixels in Spectrum: 1044
>>>>>Begin Spectral Data<<<<<
197.938	28.12
198.749	30.12
199.559	21.12
200.369	25.12
201.179	27.12
201.988	25.12
202.798	34.12
203.608	12.12
204.417	15.12
205.227	23.12
206.036	24.12
206.846	28.12
207.655	24.12
208.464	20.12
209.273	26.12
210.082	25.12
210.891	29.12
211.7	22.12
212.508	30.12
213.317	17.12
214.125	16.12
214.934	45.12
215.742	28.12
216.55	30.12
217.359	23.12
218.167	21.12
218.975	31.12
219.782	34.12
220.59	22.12
221.398	22.12
222.206	26.12
223.013	31.12
223.82	36.12
224.628	18.12
225.435	28.12
226.242	14.12
227.049	20.12
227.856	21.12
228.663	31.12
229.47	19.12
230.277	34.12
231.083	33.12
231.89	15.12
232.696	24.12
233.502	23.12
234.309	36.12
235.115	28.12
235.921	6.12
236.727	25.12
237.533	24.12
238.339	33.12
239.144	20.12
239.95	26.12
240.756	29.12
241.561	31.12
242.366	25.12
243.172	25.12
243.977	27.12
244.782	30.12
245.587	29.12
246.392	20.12
247.197	3.12
248.001	40.12
248.806	33.12
249.611	32.12
250.415	28.12
251.219	25.12
252.024	36.12
252.828	20.12
253.632	18.12
254.436	27.12
255.24	39.12
256.044	29.12
256.848	12.12
257.651	18.12
258.455	27.12
259.258	23.12
260.062	1513.12
260.865	32.12
261.668	32.12
262.471	15.12
263.274	21.12
264.077	8.12
264.88	17.12
265.683	23.12
266.486	9.12
267.288	23.12
268.091	32.12
268.893	32.12
269.696	34.12
270.498	26.12
271.3	33.12
272.102	29.12
272.904	14.12
273.706	26.12
274.508	17.12
275.309	37.12
276.111	38.12
276.913	18.12
277.714	27.12
278.515	24.12
279.317	26.12
280.118	28.12
280.919	22.12
281.72	29.12
282.521	35.12
283.322	23.12
284.122	14.12
284.923	23.12
285.724	25.12
286.524	31.12
287.325	26.12
288.125	15.12
288.925	26.12
289.725	12.12
290.525	26.12
291.325	29.12
292.125	12.12
292.925	25.12
293.724	27.12
294.524	15.12
295.324	22.12
296.123	24.12
296.922	30.12
297.722	44.12
298.521	27.12
299.32	25.12
300.119	26.12
300.918	26.12
301.716	22.12
302.515	38.12
303.314	29.12
304.112	25.12
304.911	33.12
305.709	23.12
306.507	35.12
307.306	19.12
308.104	35.12
308.902	33.12
309.7	31.12
310.498	25.12
311.295	22.12
312.093	34.12
312.891	26.12
313.688	35.12
314.485	23.12
315.283	20.12
316.08	22.12
316.877	36.12
317.674	26.12
318.471	41.12
319.268	31.12
320.065	20.12
320.862	28.12
321.658	25.12
322.455	28.12
323.251	36.12
324.047	36.12
324.844	25.12
325.64	18.12
326.436	27.12
327.232	26.12
328.028	15.12
328.824	38.12
329.62	24.12
330.415	25.12
331.211	29.12
332.006	25.12
332.802	33.12
333.597	26.12
334.392	38.12
335.187	29.12
335.982	35.12
336.777	22.12
337.572	26.12
338.367	20.12
339.162	25.12
339.956	27.12
340.751	19.12
341.545	35.12
342.34	17.12
343.134	22.12
343.928	30.12
344.722	23.12
345.516	25.12
346.31	22.12
347.104	31.12
347.898	27.12
348.691	19.12
349.485	20.12
350.278	20.12
351.072	25.12
351.865	256.12
352.658	26.12
353.452	21.12
354.245	28.12
355.038	28.12
355.83	23.12
356.623	33.12
357.416	28.12
358.209	22.12
359.001	36.12
359.794	34.12
360.586	34.12
361.378	31.12
362.17	15.12
362.963	29.12
363.755	24.12
364.546	12.12
365.338	35.12
366.13	39.12
366.922	18.12
367.713	26.12
368.505	33.12
369.296	22.12
370.088	26.12
370.879	23.12
371.67	29.12
372.461	23.12
373.252	19.12
374.043	20.12
374.834	14.12
375.625	32.12
376.415	22.12
377.206	32.12
377.996	33.12
378.787	19.12
379.577	25.12
380.367	26.12
381.157	20.12
381.947	29.12
382.737	4.12
383.527	35.12
384.317	20.12
385.107	27.12
385.896	9.12
386.686	17.12
387.475	31.12
388.265	25.12
389.054	34.12
389.843	19.12
390.632	25.12
391.421	16.12
392.21	23.12
392.999	24.12
393.788	41.12
394.576	25.12
395.365	26.12
396.154	16.12
396.942	29.12
397.73	18.12
398.519	23.12
399.307	21.12
400.095	25.12
400.883	18.12
401.671	17.12
402.459	16.12
403.246	15.12
404.034	31.12
404.822	26.12
405.609	19.12
406.396	36.12
407.184	19.12
407.971	18.12
408.758	22.12
409.545	20.12
410.332	14.12
411.119	24.12
411.906	9.12
412.693	34.12
413.479	43.12
414.266	26.12
415.052	25.12
415.839	27.12
416.625	19.12
417.411	33.12
418.197	27.12
418.983	32.12
419.769	30.12
420.555	26.12
421.341	33.12
422.127	29.12
422.912	32.12
423.698	19.12
424.483	22.12
425.269	35.12
426.054	14.12
426.839	28.12
427.624	25.12
428.409	39.12
429.194	29.12
429.979	33.12
430.764	23.12
431.549	43.12
432.333	39.12
433.118	19.12
433.902	16.12
434.687	24.12
435.471	23.12
436.255	24.12
437.039	30.12
437.823	29.12
438.607	20.12
439.391	21.12
440.175	7.12
440.958	23.12
441.742	26.12
442.526	14.12
443.309	26.12
444.092	30.12
444.876	34.12
445.659	30.12
446.442	31.12
447.225	28.12
448.008	39.12
448.791	39.12
449.573	34.12
450.356	38.12
451.139	29.12
451.921	21.12
452.704	23.12
453.486	29.12
454.268	37.12
455.05	24.12
455.833	42.12
456.615	29.12
457.396	33.12
458.178	31.12
458.96	29.12
459.742	40.12
460.523	30.12
461.305	30.12
462.086	40.12
462.868	41.12
463.649	32.12
464.43	34.12
465.211	31.12
465.992	36.12
466.773	47.12
467.554	25.12
468.335	26.12
469.115	30.12
469.896	22.12
470.676	29.12
471.457	32.12
472.237	38.12
473.018	17.12
473.798	50.12
474.578	43.12
475.358	30.12
476.138	34.12
476.918	27.12
477.697	19.12
478.477	33.12
479.257	28.12
480.036	25.12
480.816	25.12
481.595	41.12
482.374	18.12
483.153	36.12
483.932	36.12
484.711	21.12
485.49	26.12
486.269	23.12
487.048	26.12
487.827	20.12
488.605	21.12
489.384	25.12
490.162	21.12
490.941	14.12
491.719	28.12
492.497	28.12
493.275	29.12
494.053	41.12
494.831	27.12
495.609	37.12
496.387	30.12
497.164	20.12
497.942	38.12
498.72	21.12
499.497	21.12
500.274	23.12
501.052	36.12
501.829	36.12
502.606	33.12
503.383	40.12
504.16	48.12
504.937	51.12
505.714	40.12
506.49	48.12
507.267	25.12
508.043	45.12
508.82	42.12
509.596	26.12
510.373	24.12
511.149	45.12
511.925	29.12
512.701	25.12
513.477	36.12
514.253	30.12
515.029	46.12
515.804	37.12
516.58	47.12
517.356	46.12
518.131	40.12
518.906	40.12
519.682	31.12
520.457	35.12
521.232	15.12
522.007	42.12
522.782	41.12
523.557	33.12
524.332	31.12
525.107	45.12
525.881	43.12
526.656	34.12
527.43	42.12
528.205	38.12
528.979	40.12
529.753	51.12
530.527	53.12
531.302	34.12
532.076	38.12
532.849	32.12
533.623	47.12
534.397	43.12
535.171	46.12
535.944	49.12
536.718	43.12
537.491	43.12
538.265	40.12
539.038	41.12
539.811	42.12
540.584	33.12
541.357	35.12
542.13	52.12
542.903	52.12
543.676	43.12
544.449	34.12
545.221	24.12
545.994	37.12
546.766	30.12
547.539	33.12
548.311	46.12
549.083	42.12
549.855	31.12
550.627	44.12
551.399	45.12
552.171	31.12
552.943	54.12
553.715	47.12
554.486	47.12
555.258	38.12
556.029	46.12
556.801	48.12
557.572	46.12
558.343	44.12
559.114	36.12
559.886	41.12
560.657	42.12
561.427	47.12
562.198	41.12
562.969	41.12
563.74	58.12
564.51	34.12
565.281	43.12
566.051	34.12
566.822	32.12
567.592	37.12
568.362	45.12
569.132	50.12
569.902	57.12
570.672	48.12
571.442	47.12
572.212	51.12
572.982	42.12
573.751	46.12
574.521	61.12
575.29	53.12
576.06	47.12
576.829	40.12
577.598	29.12
578.367	33.12
579.136	38.12
579.905	56.12
580.674	39.12
581.443	46.12
582.212	37.12
582.981	42.12
583.749	31.12
584.518	37.12
585.286	42.12
586.054	48.12
586.823	57.12
587.591	19.12
588.359	57.12
589.127	35.12
589.895	52.12
590.663	44.12
591.431	44.12
592.198	40.12
592.966	44.12
593.734	52.12
594.501	43.12
595.268	45.12
596.036	50.12
596.803	43.12
597.57	43.12
598.337	45.12
599.104	49.12
599.871	43.12
600.638	51.12
601.405	48.12
602.171	41.12
602.938	36.12
603.704	33.12
604.471	37.12
605.237	56.12
606.004	38.12
606.77	30.12
607.536	33.12
608.302	36.12
609.068	52.12
609.834	37.12
610.599	32.12
611.365	23.12
612.131	44.12
612.896	40.12
613.662	31.12
614.427	36.12
615.193	43.12
615.958	28.12
616.723	41.12
617.488	35.12
618.253	14.12
619.018	38.12
619.783	37.12
620.548	44.12
621.312	40.12
622.077	46.12
622.842	39.12
623.606	32.12
624.37	30.12
625.135	39.12
625.899	41.12
626.663	40.12
627.427	43.12
628.191	28.12
628.955	42.12
629.719	33.12
630.483	41.12
631.246	30.12
632.01	39.12
632.773	53.12
633.537	48.12
634.3	39.12
635.063	33.12
635.827	34.12
636.59	17.12
637.353	28.12
638.116	50.12
638.879	41.12
639.641	27.12
640.404	55.12
641.167	46.12
641.929	47.12
642.692	44.12
643.454	41.12
644.216	35.12
644.979	35.12
645.741	40.12
646.503	50.12
647.265	39.12
648.027	39.12
648.789	29.12
649.551	37.12
650.312	41.12
651.074	49.12
651.835	48.12
652.597	43.12
653.358	36.12
654.12	43.12
654.881	45.12
655.642	37.12
656.403	55.12
657.164	40.12
657.925	39.12
658.686	34.12
659.447	34.12
660.207	52.12
660.968	50.12
661.728	46.12
662.489	65.12
663.249	48.12
664.01	26.12
664.77	40.12
665.53	37.12
666.29	35.12
667.05	50.12
667.81	43.12
668.57	58.12
669.329	34.12
670.089	44.12
670.849	52.12
671.608	58.12
672.368	44.12
673.127	57.12
673.886	36.12
674.646	36.12
675.405	48.12
676.164	41.12
676.923	40.12
677.682	48.12
678.44	47.12
679.199	49.12
679.958	-1.88
680.717	28.12
681.475	55.12
682.233	45.12
682.992	51.12
683.75	52.12
684.508	44.12
685.266	46.12
686.024	44.12
686.782	37.12
687.54	40.12
688.298	36.12
689.056	42.12
689.814	51.12
690.571	52.12
691.329	48.12
692.086	51.12
692.843	35.12
693.601	37.12
694.358	47.12
695.115	36.12
695.872	53.12
696.629	34.12
697.386	45.12
698.143	49.12
698.9	39.12
699.656	32.12
700.413	32.12
701.169	38.12
701.926	46.12
702.682	50.12
703.438	57.12
704.195	34.12
704.951	36.12
705.707	32.12
706.463	42.12
707.219	24.12
707.974	45.12
708.73	33.12
709.486	40.12
710.241	35.12
710.997	29.12
711.752	45.12
712.508	39.12
713.263	30.12
714.018	22.12
714.773	45.12
715.528	35.12
716.283	38.12
717.038	42.12
717.793	49.12
718.548	34.12
719.303	35.12
720.057	35.12
720.812	32.12
721.566	30.12
722.321	32.12
723.075	38.12
723.829	24.12
724.583	30.12
725.337	37.12
726.091	13.12
726.845	33.12
727.599	29.12
728.353	39.12
729.106	42.12
729.86	32.12
730.614	30.12
731.367	-99.88
732.12	36.12
732.874	40.12
733.627	43.12
734.38	43.12
735.133	29.12
735.886	38.12
736.639	40.12
737.392	36.12
738.145	25.12
738.897	26.12
739.65	27.12
740.403	29.12
741.155	40.12
741.907	25.12
742.66	31.12
743.412	28.12
744.164	42.12
744.916	32.12
745.668	25.12
746.42	44.12
747.172	36.12
747.924	33.12
748.676	27.12
749.427	23.12
750.179	25.12
750.93	28.12
751.682	27.12
752.433	34.12
753.184	34.12
753.935	39.12
754.687	22.12
755.438	31.12
756.189	20.12
756.939	31.12
757.69	27.12
758.441	42.12
759.192	27.12
759.942	26.12
760.693	37.12
761.443	45.12
762.194	33.12
762.944	24.12
763.694	26.12
764.444	23.12
765.194	27.12
765.944	24.12
766.694	34.12
767.444	21.12
768.194	27.12
768.943	28.12
769.693	29.12
770.443	20.12
771.192	30.12
771.941	10.12
772.691	31.12
773.44	21.12
774.189	25.12
774.938	21.12
775.687	26.12
776.436	22.12
777.185	26.12
777.934	25.12
778.683	29.12
779.431	33.12
780.18	33.12
780.928	17.12
781.677	27.12
782.425	36.12
783.173	40.12
783.922	36.12
784.67	7.12
785.418	28.12
786.166	31.12
786.914	21.12
787.661	16.12
788.409	27.12
789.157	31.12
789.904	23.12
790.652	23.12
791.399	16.12
792.147	18.12
792.894	22.12
793.641	24.12
794.388	213.12
795.136	20.12
795.883	9.12
796.629	15.12
797.376	24.12
798.123	25.12
798.87	30.12
799.616	27.12
800.363	30.12
801.109	30.12
801.856	30.12
802.602	23.12
803.349	24.12
804.095	29.12
804.841	30.12
805.587	25.12
806.333	32.12
807.079	41.12
807.825	29.12
808.57	20.12
809.316	37.12
810.062	31.12
810.807	29.12
811.553	29.12
812.298	16.12
813.043	48.12
813.788	34.12
814.534	16.12
815.279	23.12
816.024	28.12
816.769	35.12
817.514	24.12
818.258	38.12
819.003	31.12
819.748	511.12
820.492	38.12
821.237	137.12
821.981	20.12
822.726	43.12
823.47	8.12
824.214	19.12
824.958	32.12
825.702	29.12
826.446	23.12
827.19	16.12
827.934	19.12
828.678	29.12
829.421	35.12
830.165	25.12
830.909	22.12
831.652	28.12
832.395	33.12
833.139	31.12
833.882	36.12
834.625	25.12
835.368	23.12
836.111	17.12
836.854	28.12
837.597	33.12
838.34	24.12
839.083	37.12
839.825	29.12
840.568	19.12
841.311	23.12
842.053	37.12
842.795	29.12
843.538	24.12
844.28	23.12
845.022	12.12
845.764	23.12
846.506	9.12
847.248	21.12
847.99	16.12
848.732	31.12
849.474	21.12
850.215	23.12
850.957	31.12
851.698	21.12
852.44	26.12
853.181	42.12
853.922	25.12
854.664	29.12
855.405	27.12
856.146	34.12
856.887	22.12
857.628	28.12
858.369	11.12
859.109	29.12
859.85	26.12
860.591	13.12
861.331	47.12
862.072	28.12
862.812	19.12
863.553	25.12
864.293	23.12
865.033	28.12
865.773	31.12
866.513	24.12
867.253	25.12
867.993	19.12
868.733	27.12
869.473	9.12
870.213	22.12
870.952	32.12
871.692	37.12
872.431	26.12
873.171	27.12
873.91	26.12
874.649	7.12
875.388	40.12
876.128	27.12
876.867	27.12
877.606	20.12
878.345	35.12
879.083	25.12
879.822	22.12
880.561	30.12
881.299	35.12
882.038	22.12
882.777	21.12
883.515	30.12
884.253	218.12
884.992	25.12
885.73	24.12
886.468	27.12
887.206	36.12
887.944	43.12
888.682	26.12
889.42	34.12
890.157	26.12
890.895	25.12
891.633	28.12
892.37	33.12
893.108	37.12
893.845	24.12
894.583	24.12
895.32	31.12
896.057	16.12
896.794	33.12
897.531	38.12
898.268	17.12
899.005	29.12
899.742	26.12
900.479	24.12
901.215	15.12
901.952	27.12
902.689	25.12
903.425	25.12
904.162	15.12
904.898	20.12
905.634	21.12
906.37	23.12
907.106	15.12
907.843	26.12
908.579	21.12
909.314	25.12
910.05	28.12
910.786	21.12
911.522	18.12
912.257	13.12
912.993	18.12
913.728	21.12
914.464	32.12
915.199	23.12
915.935	38.12
916.67	25.12
917.405	25.12
918.14	29.12
918.875	35.12
919.61	40.12
920.345	25.12
921.08	33.12
921.814	15.12
922.549	24.12
923.284	34.12
924.018	18.12
924.752	29.12
925.487	32.12
926.221	26.12
926.955	16.12
927.69	23.12
928.424	33.12
929.158	42.12
929.892	16.12
930.625	28.12
931.359	27.12
932.093	19.12
932.827	28.12
933.56	19.12
934.294	14.12
935.027	21.12
935.761	29.12
936.494	33.12
937.227	27.12
937.96	32.12
938.693	32.12
939.426	29.12
940.159	38.12
940.892	18.12
941.625	24.12
942.358	26.12
943.091	32.12
943.823	24.12
944.556	31.12
945.288	27.12
946.021	22.12
946.753	27.12
947.485	22.12
948.217	26.12
948.95	29.12
949.682	20.12
950.414	20.12
951.146	20.12
951.877	26.12
952.609	21.12
953.341	24.12
954.073	30.12
954.804	20.12
955.536	35.12
956.267	32.12
956.998	13.12
957.73	23.12
958.461	19.12
959.192	25.12
959.923	36.12
960.654	39.12
961.385	24.12
962.116	23.12
962.847	30.12
963.578	29.12
964.308	31.12
965.039	16.12
965.769	26.12
966.5	35.12
967.23	25.12
967.961	27.12
968.691	42.12
969.421	23.12
970.151	29.12
970.881	32.12
971.611	28.12
972.341	26.12
973.071	19.12
973.801	25.12
974.53	27.12
975.26	24.12
975.99	22.12
976.719	27.12
977.448	27.12
978.178	30.12
978.907	31.12
979.636	36.12
980.365	24.12
981.095	13.12
981.824	29.12
982.553	28.12
983.281	18.12
984.01	-3.88
984.739	1.12
985.468	6.12
986.196	-1.88
986.925	37.12
987.653	32.12
988.382	10.12
989.11	17.12
989.838	20.12
990.566	26.12
991.295	18.12
992.023	28.12
992.751	20.12
993.478	19.12
994.206	42.12
994.934	19.12
995.662	-5.88
996.389	1.12
997.117	-1.88
997.845	5.12
