Data from White_Bg_Subt2_011.txt Node
Date: Fri Aug 23 09:21:01 EDT 2019
User: wcc
Spectrometer: QEPB0759
Trigger mode: 0
Integration Time (sec): 1.000000E0
Scans to average: 1
Electric dark correction enabled: true
Nonlinearity correction enabled: true
Boxcar width: 0
XAxis mode: Wavelengths
Number of Pixels in Spectrum: 1044
>>>>>Begin Spectral Data<<<<<
197.938	-11.53
198.749	-25.88
199.559	-13.58
200.369	-8.46
201.179	-10.51
201.988	-14.61
202.798	-18.71
203.608	-31.01
204.417	-22.81
205.227	6.92
206.036	-10.51
206.846	-25.88
207.655	-20.76
208.464	-17.68
209.273	-11.53
210.082	-9.48
210.891	-16.66
211.7	-19.73
212.508	-26.91
213.317	-24.86
214.125	-23.84
214.934	-24.86
215.742	-14.61
216.55	-13.58
217.359	-24.86
218.167	-3.33
218.975	-17.68
219.782	0.77
220.59	-20.76
221.398	-26.91
222.206	-15.63
223.013	-8.46
223.82	-21.79
224.628	-16.66
225.435	-12.56
226.242	-18.71
227.049	-18.71
227.856	-16.66
228.663	-20.76
229.47	-24.86
230.277	-15.63
231.083	-16.66
231.89	-28.96
232.696	-17.68
233.502	-7.43
234.309	-11.53
235.115	-28.96
235.921	-20.76
236.727	-24.86
237.533	-35.11
238.339	-41.26
239.144	-20.76
239.95	-20.75
240.756	-9.48
241.561	-38.18
242.366	-26.91
243.172	-15.63
243.977	-12.56
244.782	-18.71
245.587	-5.38
246.392	-3.33
247.197	-16.66
248.001	-21.79
248.806	-12.56
249.611	-27.93
250.415	-13.58
251.219	-18.71
252.024	5.89
252.828	-10.51
253.632	-16.66
254.436	-6.41
255.24	-25.88
256.044	-18.71
256.848	-17.68
257.651	-12.56
258.455	-31.01
259.258	-26.91
260.062	-246.34
260.865	-18.71
261.668	2.82
262.471	-32.04
263.274	-24.86
264.077	-20.76
264.88	-32.03
265.683	-6.41
266.486	-9.48
267.288	-3.33
268.091	2.82
268.893	-41.26
269.696	-16.66
270.498	-12.56
271.3	-19.73
272.102	-8.46
272.904	-22.81
273.706	-8.46
274.508	-11.53
275.309	-32.03
276.111	-11.53
276.913	1.79
277.714	-14.61
278.515	-32.04
279.317	-9.48
280.118	-10.51
280.919	-25.88
281.72	-11.53
282.521	-37.16
283.322	-14.61
284.122	-16.66
284.923	-17.68
285.724	-4.36
286.524	-11.53
287.325	-23.83
288.125	-40.24
288.925	-17.68
289.725	-35.11
290.525	-26.9
291.325	-34.08
292.125	-25.88
292.925	-22.81
293.724	-9.48
294.524	-33.06
295.324	-13.58
296.123	-35.11
296.922	-23.83
297.722	-7.43
298.521	-17.68
299.32	-5.38
300.119	-34.09
300.918	-24.86
301.716	-1.28
302.515	-31.01
303.314	-22.81
304.112	-31.01
304.911	-22.8
305.709	-25.88
306.507	-17.68
307.306	-19.73
308.104	-28.96
308.902	-12.56
309.7	-20.76
310.498	-24.86
311.295	-32.04
312.093	-17.68
312.891	-31
313.688	-13.58
314.485	-13.58
315.283	-5.38
316.08	-22.81
316.877	-33.06
317.674	-14.61
318.471	-17.69
319.268	-7.43
320.065	-23.83
320.862	-26.91
321.658	-12.56
322.455	16.14
323.251	-29.99
324.047	-19.73
324.844	-10.51
325.64	-10.51
326.436	-33.06
327.232	-36.13
328.028	-27.93
328.824	-13.58
329.62	-16.66
330.415	-38.18
331.211	-26.91
332.006	-22.81
332.802	-19.73
333.597	-19.73
334.392	-5.38
335.187	-6.41
335.982	-7.43
336.777	-10.51
337.572	-20.76
338.367	-22.81
339.162	-23.83
339.956	-6.41
340.751	-6.41
341.545	-28.96
342.34	-22.81
343.134	-19.73
343.928	-12.56
344.722	-13.58
345.516	-23.83
346.31	-17.68
347.104	-33.06
347.898	-16.66
348.691	-36.13
349.485	-1.28
350.278	-37.16
351.072	-35.1
351.865	-527.47
352.658	-7.43
353.452	-16.66
354.245	-1.28
355.038	-13.58
355.83	-24.86
356.623	-33.06
357.416	-15.63
358.209	-9.48
359.001	-29.99
359.794	-16.66
360.586	-27.93
361.378	-18.71
362.17	-28.96
362.963	-9.48
363.755	-24.85
364.546	-16.66
365.338	-29.98
366.13	-4.36
366.922	-42.28
367.713	-29.98
368.505	-21.78
369.296	-8.46
370.088	-14.61
370.879	-37.16
371.67	-31.01
372.461	-9.48
373.252	-15.63
374.043	-36.13
374.834	-25.89
375.625	-11.53
376.415	-13.58
377.206	-17.68
377.996	-18.71
378.787	-20.75
379.577	-34.09
380.367	-23.84
381.157	-14.61
381.947	-21.78
382.737	-13.58
383.527	-17.68
384.317	-16.66
385.107	-2.31
385.896	-22.81
386.686	-22.81
387.475	-28.96
388.265	-14.61
389.054	-27.92
389.843	-11.53
390.632	-14.61
391.421	-28.96
392.21	-25.88
392.999	-7.43
393.788	-12.56
394.576	-23.83
395.365	-21.78
396.154	-11.53
396.942	-34.09
397.73	-20.76
398.519	-17.68
399.307	-13.58
400.095	-32.03
400.883	-5.38
401.671	-19.73
402.459	-13.58
403.246	-32.04
404.034	-22.81
404.822	-31.01
405.609	-8.46
406.396	-13.58
407.184	-14.61
407.971	-15.63
408.758	-13.58
409.545	0.77
410.332	-21.78
411.119	-13.58
411.906	-26.91
412.693	-14.61
413.479	-8.46
414.266	-15.63
415.052	-17.68
415.839	-14.61
416.625	-19.73
417.411	-12.56
418.197	-17.68
418.983	-22.8
419.769	-4.36
420.555	-31.01
421.341	-16.66
422.127	-23.83
422.912	-28.96
423.698	-32.03
424.483	-40.24
425.269	-25.88
426.054	-24.86
426.839	-16.66
427.624	-14.61
428.409	-20.76
429.194	-16.66
429.979	-19.73
430.764	-12.56
431.549	-16.66
432.333	-9.48
433.118	-23.84
433.902	-43.31
434.687	-60.74
435.471	-54.58
436.255	-39.21
437.039	-8.46
437.823	-28.96
438.607	-12.56
439.391	-37.16
440.175	-23.83
440.958	-25.88
441.742	-19.73
442.526	-21.79
443.309	-28.96
444.092	-21.78
444.876	-20.76
445.659	-20.76
446.442	-34.08
447.225	-29.98
448.008	-23.83
448.791	-28.96
449.573	3.84
450.356	-22.81
451.139	-37.16
451.921	-9.48
452.704	-9.48
453.486	-26.91
454.268	-15.63
455.05	-14.61
455.833	-22.81
456.615	-13.58
457.396	-21.78
458.178	-13.58
458.96	-19.73
459.742	-16.66
460.523	-27.93
461.305	-25.88
462.086	-9.48
462.868	-40.23
463.649	-11.53
464.43	-12.56
465.211	-31
465.992	-12.56
466.773	-19.73
467.554	-4.36
468.335	-7.43
469.115	-13.58
469.896	-18.71
470.676	-19.74
471.457	-23.83
472.237	-15.63
473.018	-26.91
473.798	-18.71
474.578	-20.76
475.358	-8.46
476.138	-17.68
476.918	-11.53
477.697	-12.56
478.477	-11.53
479.257	-10.51
480.036	-16.66
480.816	-12.56
481.595	-25.88
482.374	-25.88
483.153	-19.73
483.932	-18.71
484.711	-33.06
485.49	-45.36
486.269	-34.08
487.048	-57.66
487.827	-43.31
488.605	-33.06
489.384	-44.34
490.162	-17.68
490.941	-40.23
491.719	-8.46
492.497	-19.73
493.275	-24.86
494.053	-16.66
494.831	-19.73
495.609	-22.81
496.387	-25.88
497.164	-35.11
497.942	-17.68
498.72	-22.81
499.497	-7.43
500.274	0.77
501.052	-16.66
501.829	3.84
502.606	-23.83
503.383	-18.71
504.16	19.22
504.937	-20.76
505.714	-7.43
506.49	-5.38
507.267	-19.74
508.043	-23.83
508.82	-32.03
509.596	-3.33
510.373	-17.68
511.149	-13.58
511.925	-18.71
512.701	-6.41
513.477	-1.28
514.253	-15.63
515.029	-19.73
515.804	-18.71
516.58	-3.33
517.356	-1.28
518.131	-9.48
518.906	6.92
519.682	-2.31
520.457	-12.56
521.232	1.79
522.007	-4.36
522.782	1.79
523.557	10
524.332	-11.53
525.107	-5.38
525.881	-9.48
526.656	-1.28
527.43	-2.31
528.205	-17.68
528.979	-4.36
529.753	4.87
530.527	9.99
531.302	0.77
532.076	-4.36
532.849	5.89
533.623	-14.61
534.397	-2.31
535.171	5.89
535.944	-10.51
536.718	-25.88
537.491	-14.6
538.265	-17.68
539.038	-25.88
539.811	-32.03
540.584	-32.03
541.357	-46.38
542.13	-55.6
542.903	-46.37
543.676	-55.61
544.449	-58.68
545.221	-46.38
545.994	-24.86
546.766	-23.83
547.539	-22.81
548.311	-45.36
549.083	-7.43
549.855	-23.84
550.627	-20.76
551.399	-32.03
552.171	-28.95
552.943	-16.66
553.715	-3.33
554.486	-6.41
555.258	0.77
556.029	-0.26
556.801	18.19
557.572	8.97
558.343	-5.38
559.114	-7.43
559.886	-2.31
560.657	7.94
561.427	-2.31
562.198	-8.46
562.969	1.79
563.74	-3.33
564.51	12.04
565.281	-17.68
566.051	14.1
566.822	16.15
567.592	-4.36
568.362	4.87
569.132	-5.38
569.902	11.02
570.672	8.97
571.442	-18.71
572.212	1.79
572.982	0.77
573.751	-8.46
574.521	1.79
575.29	12.04
576.06	-6.41
576.829	-22.81
577.598	-6.41
578.367	-10.51
579.136	-3.33
579.905	-22.81
580.674	-6.41
581.443	-27.93
582.212	-23.83
582.981	-16.66
583.749	3.84
584.518	-21.78
585.286	-12.56
586.054	-18.7
586.823	-34.08
587.591	-16.66
588.359	-27.93
589.127	-6.41
589.895	1.79
590.663	-37.15
591.431	-14.61
592.198	-15.63
592.966	-5.38
593.734	-11.53
594.501	-21.78
595.268	13.07
596.036	-32.03
596.803	0.77
597.57	-7.43
598.337	-8.46
599.104	-29.98
599.871	-8.46
600.638	-2.31
601.405	-2.31
602.171	-5.38
602.938	-12.55
603.704	-1.28
604.471	-16.66
605.237	-8.46
606.004	-28.96
606.77	-29.98
607.536	-24.85
608.302	-28.95
609.068	-44.33
609.834	-64.83
610.599	-99.67
611.365	-59.71
612.131	-49.45
612.896	-29.98
613.662	-55.6
614.427	-20.76
615.193	-35.11
615.958	-38.18
616.723	-16.66
617.488	-7.43
618.253	-19.73
619.018	-27.93
619.783	-28.96
620.548	-16.65
621.312	-20.76
622.077	-18.71
622.842	-19.73
623.606	-44.32
624.37	-25.88
625.135	-10.51
625.899	-4.36
626.663	-15.63
627.427	-8.46
628.191	-13.58
628.955	-38.18
629.719	-14.61
630.483	-34.08
631.246	-27.94
632.01	-11.53
632.773	-23.83
633.537	2.82
634.3	2.82
635.063	-3.33
635.827	7.95
636.59	-8.46
637.353	-11.53
638.116	-2.31
638.879	-19.73
639.641	4.87
640.404	-15.63
641.167	-2.31
641.929	-9.48
642.692	-5.38
643.454	-8.46
644.216	-14.61
644.979	-9.48
645.741	-15.63
646.503	-0.26
647.265	-6.41
648.027	-9.48
648.789	-10.51
649.551	-3.33
650.312	-19.73
651.074	-0.26
651.835	-10.51
652.597	-4.36
653.358	-16.66
654.12	4.87
654.881	6.92
655.642	-8.46
656.403	-6.41
657.164	-9.48
657.925	-2.31
658.686	-8.46
659.447	-7.43
660.207	-0.26
660.968	-1.28
661.728	-18.7
662.489	-14.61
663.249	4.87
664.01	-5.38
664.77	-7.43
665.53	21.27
666.29	-2.31
667.05	-10.51
667.81	4.87
668.57	4.87
669.329	-14.61
670.089	-12.56
670.849	-2.31
671.608	8.97
672.368	16.15
673.127	-1.28
673.886	9.99
674.646	8.97
675.405	-1.28
676.164	2.82
676.923	-2.31
677.682	-6.41
678.44	12.04
679.199	13.07
679.958	-25.87
680.717	4.87
681.475	-5.38
682.233	16.14
682.992	4.87
683.75	-11.53
684.508	-8.46
685.266	3.84
686.024	7.94
686.782	-6.41
687.54	5.89
688.298	-7.43
689.056	-2.31
689.814	-1.28
690.571	4.87
691.329	4.87
692.086	4.87
692.843	17.17
693.601	6.92
694.358	3.84
695.115	-4.36
695.872	14.1
696.629	-4.36
697.386	6.92
698.143	8.97
698.9	0.77
699.656	5.89
700.413	6.92
701.169	-10.51
701.926	6.92
702.682	-2.31
703.438	-1.28
704.195	5.89
704.951	7.94
705.707	-21.78
706.463	-0.26
707.219	-4.36
707.974	-27.93
708.73	-36.14
709.486	-23.83
710.241	-25.88
710.997	-6.41
711.752	-24.86
712.508	4.87
713.263	-11.53
714.018	-3.33
714.773	-2.31
715.528	-5.38
716.283	-12.56
717.038	-4.36
717.793	-21.78
718.548	-18.71
719.303	-2.31
720.057	-9.48
720.812	-13.58
721.566	-0.26
722.321	-23.83
723.075	-12.56
723.829	-17.68
724.583	-13.58
725.337	-10.51
726.091	-9.48
726.845	-17.68
727.599	-21.79
728.353	-4.36
729.106	-21.78
729.86	-19.73
730.614	-24.86
731.367	-184.27
732.12	-23.83
732.874	-2.31
733.627	-19.73
734.38	-13.58
735.133	-5.38
735.886	-12.56
736.639	-22.81
737.392	-24.86
738.145	-4.36
738.897	-20.76
739.65	-0.26
740.403	-20.76
741.155	-7.43
741.907	-8.46
742.66	-18.7
743.412	-6.41
744.164	-14.61
744.916	-7.43
745.668	-31.01
746.42	-20.75
747.172	3.84
747.924	-15.63
748.676	-17.68
749.427	-6.41
750.179	-17.68
750.93	-2.31
751.682	4.87
752.433	-17.68
753.184	-25.88
753.935	-12.56
754.687	-13.58
755.438	-20.76
756.189	-15.63
756.939	-16.66
757.69	-17.68
758.441	-4.36
759.192	-22.81
759.942	-6.41
760.693	-26.91
761.443	-6.41
762.194	-6.41
762.944	-7.43
763.694	-9.48
764.444	-3.33
765.194	-11.53
765.944	-33.06
766.694	-24.86
767.444	-9.48
768.194	-11.53
768.943	-12.56
769.693	-21.78
770.443	-19.73
771.192	-32.03
771.941	-14.61
772.691	-29.98
773.44	-24.86
774.189	-3.33
774.938	-35.11
775.687	-33.06
776.436	-36.13
777.185	-17.68
777.934	-19.73
778.683	-10.51
779.431	-21.78
780.18	-37.16
780.928	-12.56
781.677	-25.88
782.425	-12.56
783.173	-15.63
783.922	-15.63
784.67	-5.38
785.418	-27.93
786.166	-15.63
786.914	-2.31
787.661	-10.51
788.409	-29.98
789.157	-16.66
789.904	-24.86
790.652	-25.88
791.399	-24.86
792.147	-9.48
792.894	-3.33
793.641	-12.56
794.388	70.95
795.136	-7.43
795.883	5.89
796.629	-21.78
797.376	-40.24
798.123	-9.48
798.87	-6.41
799.616	-37.16
800.363	-22.8
801.109	-36.13
801.856	-23.83
802.602	-11.53
803.349	-16.66
804.095	-14.6
804.841	-29.98
805.587	-26.91
806.333	-20.76
807.079	-14.61
807.825	-5.38
808.57	-21.78
809.316	-13.58
810.062	-28.96
810.807	-24.86
811.553	-6.41
812.298	-17.68
813.043	-10.51
813.788	-8.46
814.534	-7.43
815.279	-8.46
816.024	-24.86
816.769	-8.46
817.514	-26.91
818.258	-16.66
819.003	-12.56
819.748	-217.95
820.492	-9.48
821.237	-88.85
821.981	-22.81
822.726	-33.05
823.47	-14.6
824.214	-18.7
824.958	-34.08
825.702	-34.08
826.446	-32.03
827.19	1.79
827.934	-13.58
828.678	-0.26
829.421	-9.48
830.165	-32.03
830.909	-18.71
831.652	-19.73
832.395	-39.21
833.139	-7.43
833.882	-15.63
834.625	-8.46
835.368	-16.66
836.111	-10.51
836.854	-42.28
837.597	-10.51
838.34	-20.76
839.083	2.82
839.825	-9.48
840.568	-5.38
841.311	-22.81
842.053	-11.53
842.795	-11.53
843.538	-10.51
844.28	-12.56
845.022	-21.79
845.764	-23.83
846.506	-10.51
847.248	-35.11
847.99	-14.61
848.732	-14.61
849.474	-32.03
850.215	-12.56
850.957	-33.06
851.698	-25.88
852.44	-11.53
853.181	-22.81
853.922	-15.63
854.664	-8.46
855.405	-28.95
856.146	-19.73
856.887	-24.86
857.628	-35.1
858.369	-17.68
859.109	-8.46
859.85	-18.71
860.591	-11.53
861.331	-27.94
862.072	-11.53
862.812	-16.66
863.553	-12.56
864.293	-20.76
865.033	-13.58
865.773	0.77
866.513	-10.51
867.253	-3.33
867.993	-13.58
868.733	-23.83
869.473	-31.01
870.213	-17.68
870.952	-22.81
871.692	-26.91
872.431	-19.73
873.171	-19.73
873.91	4.87
874.649	-13.58
875.388	-19.73
876.128	-12.56
876.867	-29.99
877.606	-26.91
878.345	-20.76
879.083	0.77
879.822	-25.89
880.561	-23.83
881.299	-14.61
882.038	-8.46
882.777	3.84
883.515	-17.68
884.253	-14.44
884.992	-18.71
885.73	-19.73
886.468	-16.66
887.206	-19.73
887.944	-26.91
888.682	-24.86
889.42	-16.66
890.157	-10.51
890.895	4.87
891.633	-35.07
892.37	-34.08
893.108	-31.01
893.845	-31.01
894.583	-29.98
895.32	-6.41
896.057	-11.53
896.794	-17.68
897.531	-27.93
898.268	-23.83
899.005	-25.89
899.742	-5.38
900.479	-32.03
901.215	-18.71
901.952	-15.63
902.689	-32.04
903.425	-14.61
904.162	-5.38
904.898	-29.98
905.634	-15.63
906.37	-15.63
907.106	-1.28
907.843	-13.58
908.579	-15.63
909.314	-13.58
910.05	-14.61
910.786	-29.98
911.522	-7.43
912.257	-33.06
912.993	-6.41
913.728	-16.66
914.464	-18.71
915.199	-17.68
915.935	-22.81
916.67	-26.91
917.405	-16.66
918.14	-29.98
918.875	-8.46
919.61	-3.33
920.345	-20.76
921.08	-25.88
921.814	-34.08
922.549	-0.26
923.284	-20.76
924.018	-22.81
924.752	-28.95
925.487	-14.61
926.221	-19.73
926.955	-23.83
927.69	-21.79
928.424	-18.71
929.158	-13.58
929.892	-20.76
930.625	-8.46
931.359	-15.63
932.093	-10.51
932.827	-16.66
933.56	-21.78
934.294	-10.51
935.027	-14.61
935.761	-17.68
936.494	-17.68
937.227	-31.01
937.96	-24.86
938.693	-29.98
939.426	-16.66
940.159	-41.26
940.892	-10.51
941.625	-12.56
942.358	-27.93
943.091	-33.06
943.823	-24.86
944.556	-15.63
945.288	0.77
946.021	-11.53
946.753	-1.28
947.485	-23.83
948.217	4.87
948.95	-33.06
949.682	-17.68
950.414	-15.63
951.146	-27.93
951.877	-5.38
952.609	15.12
953.341	-12.56
954.073	-27.93
954.804	-27.93
955.536	-9.48
956.267	-31.01
956.998	4.87
957.73	-37.16
958.461	-25.89
959.192	-18.71
959.923	-20.76
960.654	-9.48
961.385	-0.26
962.116	-16.66
962.847	-7.43
963.578	-11.53
964.308	-23.83
965.039	-16.66
965.769	-25.88
966.5	-13.58
967.23	-13.58
967.961	-13.58
968.691	-20.76
969.421	-14.61
970.151	-34.08
970.881	-29.99
971.611	-27.93
972.341	-15.63
973.071	-34.08
973.801	-21.78
974.53	-10.51
975.26	-29.98
975.99	-29.98
976.719	-38.18
977.448	-14.61
978.178	-13.58
978.907	-4.36
979.636	-9.48
980.365	-14.61
981.095	-5.38
981.824	-21.78
982.553	-17.68
983.281	-28.96
984.01	-1.28
984.739	2.82
985.468	-5.39
986.196	-4.36
986.925	-28.95
987.653	-22.81
988.382	-12.56
989.11	-23.83
989.838	-0.26
990.566	-15.63
991.295	-12.56
992.023	-23.83
992.751	-4.36
993.478	-12.56
994.206	-18.71
994.934	-14.61
995.662	-1.28
996.389	2.82
997.117	-8.46
997.845	15.13
