Data from White_Subt2_001.txt Node
Date: Fri Aug 23 09:19:31 EDT 2019
User: wcc
Spectrometer: QEPB0759
Trigger mode: 0
Integration Time (sec): 1.000000E0
Scans to average: 1
Electric dark correction enabled: true
Nonlinearity correction enabled: true
Boxcar width: 0
XAxis mode: Wavelengths
Number of Pixels in Spectrum: 1044
>>>>>Begin Spectral Data<<<<<
197.938	11.15
198.749	17.3
199.559	-2.18
200.369	22.42
201.179	26.52
201.988	8.07
202.798	11.15
203.608	0.9
204.417	0.9
205.227	16.27
206.036	15.25
206.846	1.92
207.655	14.22
208.464	12.17
209.273	22.42
210.082	2.95
210.891	0.9
211.7	26.52
212.508	5
213.317	29.6
214.125	20.37
214.934	17.3
215.742	20.37
216.55	25.5
217.359	24.48
218.167	21.4
218.975	8.07
219.782	21.4
220.59	3.97
221.398	21.4
222.206	10.12
223.013	23.45
223.82	17.3
224.628	6.02
225.435	33.7
226.242	10.12
227.049	17.3
227.856	11.15
228.663	20.37
229.47	13.2
230.277	29.6
231.083	19.35
231.89	20.37
232.696	15.25
233.502	15.25
234.309	7.05
235.115	26.52
235.921	24.47
236.727	17.3
237.533	14.22
238.339	-10.38
239.144	17.3
239.95	19.34
240.756	18.32
241.561	-2.18
242.366	-3.2
243.172	16.27
243.977	26.52
244.782	10.12
245.587	24.47
246.392	16.27
247.197	19.35
248.001	11.15
248.806	19.35
249.611	17.3
250.415	19.35
251.219	23.45
252.024	12.17
252.828	23.45
253.632	19.35
254.436	42.93
255.24	14.22
256.044	39.85
256.848	28.57
257.651	15.25
258.455	-1.15
259.258	15.25
260.062	2291.05
260.865	0.9
261.668	24.47
262.471	16.27
263.274	10.12
264.077	15.25
264.88	13.2
265.683	33.7
266.486	34.72
267.288	39.85
268.091	37.8
268.893	-18.58
269.696	14.22
270.498	18.32
271.3	16.27
272.102	19.35
272.904	-3.2
273.706	35.75
274.508	28.57
275.309	22.42
276.111	25.5
276.913	46
277.714	22.43
278.515	16.27
279.317	32.67
280.118	28.58
280.919	30.62
281.72	27.55
282.521	13.2
283.322	21.4
284.122	11.15
284.923	17.3
285.724	29.6
286.524	19.35
287.325	16.27
288.125	9.1
288.925	20.37
289.725	-10.38
290.525	22.42
291.325	22.42
292.125	32.67
292.925	11.15
293.724	24.48
294.524	11.15
295.324	33.7
296.123	11.15
296.922	16.27
297.722	27.54
298.521	19.35
299.32	31.64
300.119	8.07
300.918	13.2
301.716	24.47
302.515	14.22
303.314	18.32
304.112	-0.13
304.911	14.22
305.709	11.15
306.507	24.47
307.306	12.17
308.104	16.27
308.902	25.5
309.7	9.1
310.498	15.25
311.295	6.02
312.093	2.95
312.891	8.07
313.688	6.02
314.485	17.3
315.283	21.39
316.08	24.47
316.877	15.25
317.674	27.55
318.471	10.12
319.268	26.52
320.065	23.45
320.862	10.12
321.658	36.77
322.455	33.7
323.251	1.92
324.047	13.2
324.844	24.47
325.64	20.37
326.436	27.55
327.232	3.97
328.028	19.35
328.824	29.6
329.62	36.77
330.415	15.24
331.211	20.37
332.006	12.17
332.802	17.3
333.597	17.3
334.392	34.72
335.187	19.35
335.982	41.9
336.777	24.47
337.572	3.97
338.367	12.17
339.162	22.42
339.956	20.37
340.751	21.4
341.545	24.47
342.34	3.97
343.134	23.45
343.928	16.27
344.722	13.2
345.516	14.22
346.31	30.62
347.104	15.25
347.898	29.6
348.691	8.07
349.485	33.7
350.278	9.1
351.072	19.34
351.865	-435.04
352.658	18.32
353.452	13.2
354.245	25.5
355.038	30.62
355.83	29.6
356.623	14.22
357.416	22.42
358.209	32.67
359.001	22.42
359.794	42.92
360.586	15.25
361.378	15.25
362.17	12.17
362.963	26.53
363.755	39.84
364.546	22.42
365.338	17.3
366.13	28.57
366.922	16.27
367.713	32.67
368.505	31.65
369.296	35.75
370.088	51.13
370.879	27.55
371.67	29.6
372.461	48.05
373.252	52.15
374.043	53.17
374.834	47.03
375.625	73.67
376.415	67.51
377.206	79.82
377.996	105.44
378.787	125.92
379.577	133.12
380.367	192.58
381.157	210.99
381.947	265.31
382.737	297.06
383.527	362.6
384.317	405.59
385.107	499.9
385.896	540.75
386.686	619.63
387.475	734.24
388.265	841.8
389.054	940.65
389.843	1089.36
390.632	1219.16
391.421	1331.6
392.21	1500.2
392.999	1678.18
393.788	1881.26
394.576	2038.35
395.365	2225.06
396.154	2445.56
396.942	2656.69
397.73	2852.09
398.519	3082.27
399.307	3279.69
400.095	3471.91
400.883	3677.91
401.671	3897.06
402.459	4175.37
403.246	4392.98
404.034	4592.87
404.822	4866.63
405.609	5069.9
406.396	5311.92
407.184	5445.94
407.971	5585.77
408.758	5742.75
409.545	5831.46
410.332	5959.13
411.119	6110.12
411.906	6311.36
412.693	6478.17
413.479	6697.39
414.266	7010.28
415.052	7379.01
415.839	7769.95
416.625	8211.72
417.411	8659.85
418.197	9166.17
418.983	9574.84
419.769	9776.05
420.555	9802.74
421.341	9719.49
422.127	9573.39
422.912	9496.22
423.698	9459.71
424.483	9444.86
425.269	9465.3
426.054	9617.95
426.839	9791.29
427.624	10050.65
428.409	10403.93
429.194	10772.47
429.979	11187.7
430.764	11593.88
431.549	11999.31
432.333	12362.07
433.118	12691.14
433.902	12914.06
434.687	13157.07
435.471	13371.55
436.255	13588.24
437.039	13830.56
437.823	14058.83
438.607	14177.35
439.391	14110.37
440.175	14116.72
440.958	14211.48
441.742	14385.15
442.526	14571.42
443.309	14718.51
444.092	14933.34
444.876	15083.47
445.659	15371.64
446.442	15506.76
447.225	15812.81
448.008	16426.99
448.791	17678.08
449.573	19392.43
450.356	19544.17
451.139	19023.82
451.921	19392.47
452.704	19292.42
453.486	18995.57
454.268	19402.16
455.05	19948.69
455.833	20649.11
456.615	21441.47
457.396	22179.15
458.178	22654.76
458.96	22703.97
459.742	22858.39
460.523	23303.12
461.305	24023.28
462.086	24907.02
462.868	25436.46
463.649	25223.8
464.43	25064.21
465.211	25368.83
465.992	26645.89
466.773	28874.6
467.554	30641.5
468.335	30926.16
469.115	30128.76
469.896	29303.51
470.676	28481.37
471.457	28523.36
472.237	30592.31
473.018	32594.44
473.798	31049.68
474.578	28714.43
475.358	27995.74
476.138	27811.31
476.918	27821.11
477.697	28182.39
478.477	28759.65
479.257	29842.89
480.036	31526.95
480.816	33062.75
481.595	33712.65
482.374	33797.3
483.153	33930.49
483.932	33490.91
484.711	33051.88
485.49	32733.06
486.269	32874.15
487.048	33205.79
487.827	33793.73
488.605	34467.93
489.384	35237.88
490.162	36526.92
490.941	38985.21
491.719	41233.66
492.497	41690.44
493.275	41036.24
494.053	40300.57
494.831	39755.5
495.609	39489.11
496.387	39455.31
497.164	39563.53
497.942	39723.67
498.72	39838.12
499.497	40085.56
500.274	40237.38
501.052	40570.51
501.829	40971.68
502.606	41509.18
503.383	41737.37
504.16	41908.73
504.937	41970.44
505.714	42119.26
506.49	42321.55
507.267	42647.67
508.043	42899.43
508.82	43217.94
509.596	43590.26
510.373	44021.63
511.149	44423.98
511.925	44890.98
512.701	45652.64
513.477	45952.88
514.253	46271.73
515.029	46671.37
515.804	47026.34
516.58	47597.99
517.356	47998.94
518.131	48376.39
518.906	48909.39
519.682	49250.15
520.457	49602.93
521.232	50181.93
522.007	50465.95
522.782	50695.95
523.557	51000.95
524.332	51195.4
525.107	51422.42
525.881	51606.43
526.656	51800.9
527.43	51938.69
528.205	52186.97
528.979	52225.86
529.753	51932.82
530.527	51925.54
531.302	51797.31
532.076	51656.14
532.849	51621.4
533.623	51365.28
534.397	51042.02
535.171	50922.3
535.944	50750.18
536.718	50439.42
537.491	50329.46
538.265	50142.42
539.038	50123.5
539.811	49961.26
540.584	50045.23
541.357	49956.4
542.13	49935.61
542.903	49781.31
543.676	49619.25
544.449	49582.9
545.221	49540.22
545.994	49498.93
546.766	49515.81
547.539	49586.96
548.311	49454.96
549.083	49483.72
549.855	49622.61
550.627	49696.58
551.399	49936.3
552.171	50185.14
552.943	50412.14
553.715	50635.26
554.486	51016.21
555.258	51219.64
556.029	51552.95
556.801	51834.18
557.572	52211.77
558.343	52483.6
559.114	52890.32
559.886	53305.79
560.657	53821.28
561.427	54095.73
562.198	54440.79
562.969	54653.98
563.74	54975.79
564.51	55051.24
565.281	55230.07
566.051	55396.94
566.822	55502.99
567.592	55496.81
568.362	55514.22
569.132	55441.68
569.902	55211.52
570.672	54994.37
571.442	54781.04
572.212	54537.93
572.982	54261.8
573.751	53942.63
574.521	53757.34
575.29	53469.16
576.06	53152.69
576.829	52915.2
577.598	52621.96
578.367	52335.94
579.136	52183.25
579.905	51886.36
580.674	51838.43
581.443	51631.25
582.212	51556.22
582.981	51535.22
583.749	51552.54
584.518	51458.13
585.286	51531.93
586.054	51584.88
586.823	51555.75
587.591	51537.4
588.359	51470.4
589.127	51505.19
589.895	51468.32
590.663	51392.49
591.431	51353.57
592.198	51256.58
592.966	51147.57
593.734	51126.81
594.501	51001.87
595.268	50735.49
596.036	50556.61
596.803	50357.52
597.57	49991.17
598.337	49778.46
599.104	49346.72
599.871	49100.27
600.638	48709.27
601.405	48365.36
602.171	48099.12
602.938	47842.93
603.704	47521.6
604.471	47278.52
605.237	47061.34
606.004	46751.48
606.77	46578.54
607.536	46396
608.302	46385.34
609.068	46302.53
609.834	46159.15
610.599	46065
611.365	46201.79
612.131	46130.93
612.896	46294.72
613.662	46117.81
614.427	46056.56
615.193	46021.71
615.958	45807.54
616.723	45767.07
617.488	45643.73
618.253	45532.53
619.018	45277.05
619.783	45161.01
620.548	44890.27
621.312	44722.62
622.077	44566.79
622.842	44387.09
623.606	44161.93
624.37	43901.17
625.135	43603.78
625.899	43418.46
626.663	43029.01
627.427	42559.96
628.191	42301.16
628.955	41939.61
629.719	41724.19
630.483	41347.34
631.246	40967.12
632.01	40565.18
632.773	40157.41
633.537	39729.4
634.3	39289.71
635.063	38768.43
635.827	38413.69
636.59	37898.12
637.353	37411.43
638.116	36968.37
638.879	36453.57
639.641	36029.24
640.404	35602.28
641.167	35258.46
641.929	34860.48
642.692	34480.61
643.454	34016.13
644.216	33762.41
644.979	33373.18
645.741	33136.46
646.503	32955.16
647.265	32698.58
648.027	32460.48
648.789	32147.97
649.551	31889.38
650.312	31321.6
651.074	30665.82
651.835	30200.29
652.597	29793.1
653.358	29361.8
654.12	29170.85
654.881	28836.52
655.642	28513.84
656.403	28347.68
657.164	28199.05
657.925	28079.94
658.686	27953.3
659.447	27853.98
660.207	27820.55
660.968	27752.19
661.728	27699.84
662.489	27773.61
663.249	27875.5
664.01	27897.06
664.77	28004.25
665.53	28120.52
666.29	28064.08
667.05	28168.35
667.81	28339.3
668.57	28383.68
669.329	28387.05
670.089	28420.79
670.849	28472.6
671.608	28543.27
672.368	28573.68
673.127	28472.48
673.886	28442.03
674.646	28363.9
675.405	28323.83
676.164	28156.45
676.923	28006.37
677.682	27858.58
678.44	27655.59
679.199	27635.79
679.958	27536.79
680.717	27674.4
681.475	28001.02
682.233	28617.97
682.992	28700.06
683.75	28095.79
684.508	27363.15
685.266	26737.13
686.024	26152.16
686.782	25725.63
687.54	25468.74
688.298	25080.19
689.056	24655.89
689.814	24176.44
690.571	23628.78
691.329	23061.05
692.086	22600.72
692.843	22085.99
693.601	21690.97
694.358	21228.2
695.115	20743.11
695.872	20335.96
696.629	20004.41
697.386	19702.83
698.143	19425.08
698.9	19096.07
699.656	19014.49
700.413	18735.85
701.169	18546.34
701.926	18349.8
702.682	18246.89
703.438	18063.25
704.195	17838.12
704.951	17698.14
705.707	17640.95
706.463	17540.46
707.219	17470.76
707.974	17440.8
708.73	17321.1
709.486	17416.87
710.241	17309.7
710.997	17198.55
711.752	17052.91
712.508	16800.97
713.263	16438.25
714.018	16033.03
714.773	15546.52
715.528	15109.34
716.283	14573.26
717.038	14080.03
717.793	13657.82
718.548	13111.18
719.303	12580.59
720.057	12014.98
720.812	11530.57
721.566	11162.01
722.321	10762.09
723.075	10472.36
723.829	10115.57
724.583	9909.86
725.337	9706.51
726.091	9498.15
726.845	9362.96
727.599	9312.11
728.353	9143.81
729.106	8973.77
729.86	8819.67
730.614	8857.78
731.367	8666.14
732.12	8991.19
732.874	8743.03
733.627	8406.71
734.38	7953.08
735.133	7567.12
735.886	7239.56
736.639	6926.3
737.392	6772.56
738.145	6658.17
738.897	6574.94
739.65	6494.82
740.403	6366.08
741.155	6160.6
741.907	5852.22
742.66	5425.15
743.412	4863.2
744.164	4208.81
744.916	3468.63
745.668	2597.32
746.42	1718.57
747.172	1021.82
747.924	529.55
748.676	283.77
749.427	203.82
750.179	136.18
750.93	151.55
751.682	125.95
752.433	104.41
753.184	92.1
753.935	107.5
754.687	101.35
755.438	106.46
756.189	103.39
756.939	81.87
757.69	72.65
758.441	90.07
759.192	82.9
759.942	90.06
760.693	64.44
761.443	68.54
762.194	73.68
762.944	70.6
763.694	88.01
764.444	93.15
765.194	77.77
765.944	60.34
766.694	75.72
767.444	61.36
768.194	72.64
768.943	63.43
769.693	44.97
770.443	51.12
771.192	23.45
771.941	67.53
772.691	50.09
773.44	51.12
774.189	52.14
774.938	38.82
775.687	59.32
776.436	54.19
777.185	42.92
777.934	51.13
778.683	57.27
779.431	55.22
780.18	49.07
780.928	58.3
781.677	47.02
782.425	48.05
783.173	42.92
783.922	49.07
784.67	55.21
785.418	41.89
786.166	57.27
786.914	62.4
787.661	46
788.409	39.85
789.157	44.97
789.904	44.97
790.652	51.12
791.399	53.17
792.147	35.75
792.894	54.19
793.641	34.72
794.388	265.31
795.136	46
795.883	67.53
796.629	35.74
797.376	20.37
798.123	36.78
798.87	27.55
799.616	12.17
800.363	26.52
801.109	32.67
801.856	32.67
802.602	34.73
803.349	32.67
804.095	34.72
804.841	24.47
805.587	17.3
806.333	27.55
807.079	33.69
807.825	34.72
808.57	20.37
809.316	27.54
810.062	16.27
810.807	16.27
811.553	30.62
812.298	21.4
813.043	25.5
813.788	34.72
814.534	26.52
815.279	14.22
816.024	17.3
816.769	23.45
817.514	10.12
818.258	6.02
819.003	28.57
819.748	-180.7
820.492	22.42
821.237	-203.83
821.981	21.4
822.726	12.17
823.47	13.2
824.214	29.59
824.958	3.97
825.702	-8.33
826.446	8.07
827.19	29.59
827.934	15.24
828.678	21.4
829.421	23.44
830.165	-9.35
830.909	20.37
831.652	12.17
832.395	5
833.139	26.52
833.882	2.95
834.625	22.42
835.368	9.1
836.111	17.3
836.854	6.02
837.597	16.27
838.34	16.27
839.083	21.4
839.825	12.17
840.568	36.78
841.311	15.25
842.053	9.1
842.795	16.27
843.538	3.97
844.28	0.9
845.022	15.25
845.764	14.22
846.506	24.48
847.248	3.97
847.99	6.02
848.732	6.02
849.474	10.12
850.215	12.17
850.957	-2.18
851.698	7.05
852.44	9.1
853.181	19.35
853.922	-4.23
854.664	24.47
855.405	5
856.146	20.37
856.887	11.15
857.628	0.9
858.369	23.45
859.109	-4.23
859.85	14.22
860.591	21.4
861.331	-8.33
862.072	14.22
862.812	5
863.553	18.32
864.293	10.12
865.033	1.92
865.773	16.27
866.513	18.33
867.253	16.27
867.993	16.27
868.733	10.12
869.473	-8.33
870.213	-4.23
870.952	6.02
871.692	-2.18
872.431	9.1
873.171	23.45
873.91	21.4
874.649	11.15
875.388	6.02
876.128	0.9
876.867	-9.35
877.606	-4.23
878.345	-0.13
879.083	7.05
879.822	-1.15
880.561	-1.15
881.299	11.15
882.038	-2.18
882.777	25.5
883.515	-15.5
884.253	320.92
884.992	-1.15
885.73	1.92
886.468	10.12
887.206	3.97
887.944	-4.23
888.682	-2.18
889.42	-11.4
890.157	5
890.895	13.2
891.633	-23.68
892.37	-14.48
893.108	-12.43
893.845	-5.25
894.583	0.9
895.32	15.25
896.057	-11.41
896.794	-0.13
897.531	-11.4
898.268	-10.38
899.005	-22.68
899.742	-5.25
900.479	-14.48
901.215	0.9
901.952	2.95
902.689	-2.18
903.425	-4.23
904.162	2.95
904.898	-4.23
905.634	-3.2
906.37	-8.33
907.106	6.02
907.843	-9.35
908.579	-12.43
909.314	1.92
910.05	-15.5
910.786	-6.28
911.522	-15.51
912.257	-28.83
912.993	7.05
913.728	9.1
914.464	-26.78
915.199	-6.28
915.935	-14.48
916.67	-12.43
917.405	-25.75
918.14	-17.55
918.875	-1.15
919.61	5
920.345	-6.28
921.08	-30.88
921.814	-16.53
922.549	6.02
923.284	-17.55
924.018	-11.4
924.752	-6.28
925.487	-8.33
926.221	-11.4
926.955	0.9
927.69	-14.48
928.424	-15.5
929.158	-18.58
929.892	-7.3
930.625	1.92
931.359	-2.18
932.093	12.17
932.827	-6.28
933.56	2.95
934.294	-2.18
935.027	-6.28
935.761	-10.38
936.494	-12.43
937.227	-24.73
937.96	-16.53
938.693	-10.38
939.426	-6.28
940.159	-25.75
940.892	0.9
941.625	-16.53
942.358	-15.5
943.091	-7.3
943.823	-15.51
944.556	-3.2
945.288	9.1
946.021	-11.4
946.753	1.92
947.485	-20.63
948.217	12.17
948.95	-13.45
949.682	-7.3
950.414	-8.33
951.146	-11.4
951.877	2.95
952.609	22.42
953.341	-15.5
954.073	-13.45
954.804	-2.18
955.536	-17.55
956.267	-8.33
956.998	3.97
957.73	-34.98
958.461	-23.71
959.192	16.27
959.923	-7.3
960.654	-3.2
961.385	-1.15
962.116	-3.2
962.847	-3.2
963.578	-6.28
964.308	-8.33
965.039	0.9
965.769	-22.68
966.5	-7.3
967.23	-7.3
967.961	-2.18
968.691	-24.73
969.421	-14.48
970.151	-18.58
970.881	-14.48
971.611	-18.58
972.341	-11.4
973.071	-24.73
973.801	-0.13
974.53	-5.25
975.26	-0.13
975.99	-13.45
976.719	-18.58
977.448	-0.13
978.178	-12.43
978.907	-10.38
979.636	-4.23
980.365	-9.35
981.095	0.9
981.824	-9.35
982.553	-12.43
983.281	-7.3
984.01	1.92
984.739	-0.13
985.468	-8.34
986.196	0.9
986.925	8.07
987.653	11.15
988.382	9.1
989.11	7.05
989.838	16.27
990.566	22.42
991.295	-12.43
992.023	2.95
992.751	6.02
993.478	1.92
994.206	-7.3
994.934	-24.73
995.662	2.95
996.389	2.95
997.117	-7.31
997.845	7.05
